# z (um)	 Electron density (m^-3)
0.000000000000000000e+00 1.264826816604626904e+26 5.415856738738832554e+00
1.000000000000000021e-08 1.262594036072851228e+26 5.415866101548119538e+00
2.000000000000000042e-08 1.260357020139162279e+26 5.415876581935044953e+00
3.000000000000000394e-08 1.258115954176256035e+26 5.415888182407079476e+00
4.000000000000000084e-08 1.255867977434140023e+26 5.415983132621756901e+00
4.999999999999999774e-08 1.253526858323361751e+26 5.415345703488640083e+00
6.000000000000000787e-08 1.251274621179164324e+26 5.415365264060536532e+00
7.000000000000000477e-08 1.249019320114169683e+26 5.415381388587458211e+00
8.000000000000000167e-08 1.246760878340890066e+26 5.415398676560150726e+00
8.999999999999999857e-08 1.244499482705052638e+26 5.415417135726753983e+00
9.999999999999999547e-08 1.242235317480664149e+26 5.415436772654530273e+00
1.100000000000000056e-07 1.239968563991198251e+26 5.415457592652007435e+00
1.200000000000000157e-07 1.237608174305847372e+26 5.414827925933320962e+00
1.299999999999999994e-07 1.235336919476224729e+26 5.414851121362293185e+00
1.400000000000000095e-07 1.233063598284498500e+26 5.414875527797569532e+00
1.499999999999999932e-07 1.230788389770705621e+26 5.414901148673607167e+00
1.600000000000000033e-07 1.228511469148118539e+26 5.414927984846675812e+00
1.700000000000000135e-07 1.226230004713500885e+26 5.415038789312606404e+00
1.799999999999999971e-07 1.223860047624942928e+26 5.414416165282975868e+00
1.900000000000000073e-07 1.221579146580068744e+26 5.414446614211615660e+00
1.999999999999999909e-07 1.219297026218461742e+26 5.414482989900922583e+00
2.100000000000000011e-07 1.217014179698865110e+26 5.414515878923535475e+00
2.200000000000000112e-07 1.214730605767099778e+26 5.414549979157600390e+00
2.299999999999999949e-07 1.212446463091933312e+26 5.414585284755789374e+00
2.400000000000000315e-07 1.210072872465805886e+26 5.413969523070612411e+00
2.499999999999999887e-07 1.207788192793726995e+26 5.414007212611367414e+00
2.599999999999999988e-07 1.205503395524083581e+26 5.414046108013277347e+00
2.700000000000000090e-07 1.203218635902223562e+26 5.414086207419050112e+00
2.800000000000000191e-07 1.200934066044623550e+26 5.414127509053303200e+00
2.900000000000000292e-07 1.198561725472958168e+26 5.413517385164208662e+00
2.999999999999999864e-07 1.196278116894121156e+26 5.413561078002123494e+00
3.099999999999999966e-07 1.193995133652538704e+26 5.413605989968402810e+00
3.200000000000000067e-07 1.191712926397345692e+26 5.413652124898479912e+00
3.300000000000000168e-07 1.189431642699728889e+26 5.413699486119778470e+00
3.400000000000000270e-07 1.187064229294133732e+26 5.413095097492031549e+00
3.499999999999999842e-07 1.184785357833794746e+26 5.413144908058724170e+00
3.599999999999999943e-07 1.182507829976554950e+26 5.413195970346595054e+00
3.700000000000000044e-07 1.180231789669543273e+26 5.413248287910037426e+00
3.800000000000000146e-07 1.177957098237157681e+26 5.413306716706339117e+00
3.900000000000000247e-07 1.175684447699209448e+26 5.413361553215872313e+00
3.999999999999999819e-07 1.173327538169417150e+26 5.412764287935871721e+00
4.099999999999999920e-07 1.171056007949628360e+26 5.412905557179580995e+00
4.200000000000000022e-07 1.168789550617427665e+26 5.412964140481333786e+00
4.300000000000000123e-07 1.166525361972508466e+26 5.413023979346383463e+00
4.400000000000000224e-07 1.164263566076762731e+26 5.413085067654432869e+00
4.500000000000000326e-07 1.161919004488870529e+26 5.412493922964030091e+00
4.599999999999999898e-07 1.159662478686893827e+26 5.412557473682880982e+00
4.699999999999999999e-07 1.157408688419322582e+26 5.412622266510272340e+00
4.800000000000000630e-07 1.155157750120117783e+26 5.412688294503116282e+00
4.899999999999999672e-07 1.152909776105190211e+26 5.412755549796783860e+00
4.999999999999999774e-07 1.150580464183660305e+26 5.412170231982121216e+00
5.099999999999999875e-07 1.148338867637266847e+26 5.412239904322146522e+00
5.199999999999999976e-07 1.146100546264486763e+26 5.412310798557957270e+00
5.300000000000000078e-07 1.143865606994271368e+26 5.412382910915026102e+00
5.400000000000000179e-07 1.141550565158921782e+26 5.411802169116981531e+00
5.500000000000000281e-07 1.139322823068397266e+26 5.411876693580727427e+00
5.600000000000000382e-07 1.137098761018756690e+26 5.411952444316333377e+00
5.700000000000000483e-07 1.134878481957910962e+26 5.412029421421259201e+00
5.800000000000000585e-07 1.132662085299593244e+26 5.412107624314107746e+00
5.899999999999999627e-07 1.130366810799079024e+26 5.411532683670435162e+00
5.999999999999999728e-07 1.128161449025516164e+26 5.411528473591786792e+00
6.099999999999999830e-07 1.125957375658431818e+26 5.411610345453572890e+00
6.199999999999999931e-07 1.123757552133288686e+26 5.411693457158515130e+00
6.300000000000000033e-07 1.121479910954069851e+26 5.411122957096505814e+00
6.400000000000000134e-07 1.119288971467774951e+26 5.411208527813425206e+00
6.500000000000000235e-07 1.117102534237179341e+26 5.411295345728394324e+00
6.600000000000000337e-07 1.114920684808461512e+26 5.411383406857056322e+00
6.700000000000000438e-07 1.112743504219077288e+26 5.411472704668897293e+00
6.800000000000000539e-07 1.110489722908348696e+26 5.410908107795723510e+00
6.900000000000000641e-07 1.108322222901631378e+26 5.410999839774923714e+00
6.999999999999999683e-07 1.106159604925961527e+26 5.411092796833331775e+00
7.099999999999999785e-07 1.104001941072760171e+26 5.411186969762012744e+00
7.199999999999999886e-07 1.101768620839378779e+26 5.410626990263446068e+00
7.299999999999999987e-07 1.099621180710783274e+26 5.410723551002424081e+00
7.400000000000000089e-07 1.097478883800240716e+26 5.410821312708788078e+00
7.500000000000000190e-07 1.095341795080219690e+26 5.410920266940280499e+00
7.600000000000000291e-07 1.093129953938192073e+26 5.410364823538300172e+00
7.700000000000000393e-07 1.091003575555059464e+26 5.410466124885768835e+00
7.800000000000000494e-07 1.088882576278240807e+26 5.410568610681703028e+00
7.900000000000000595e-07 1.086767015778416137e+26 5.410672275763407590e+00
7.999999999999999638e-07 1.084577573766970116e+26 5.410121321433692287e+00
8.099999999999999739e-07 1.082473167721065957e+26 5.410227318409973840e+00
8.199999999999999841e-07 1.080374357001903483e+26 5.410334497240128826e+00
8.299999999999999942e-07 1.078281196502628197e+26 5.410442855954702424e+00
8.400000000000000043e-07 1.076117888547019627e+26 5.409810284144644932e+00
8.500000000000000145e-07 1.074036284950136451e+26 5.409920969782945122e+00
8.600000000000000246e-07 1.071960473330150805e+26 5.410032843887742082e+00
8.700000000000000347e-07 1.069890502411012859e+26 5.410145904022265029e+00
8.800000000000000449e-07 1.067748305468294445e+26 5.409603720873339405e+00
8.900000000000000550e-07 1.065690253285821100e+26 5.409719130038450174e+00
9.000000000000000652e-07 1.063638162281798404e+26 5.409835726356481800e+00
9.099999999999999694e-07 1.061592073768368989e+26 5.409953504337960517e+00
9.199999999999999795e-07 1.059474525251091908e+26 5.409415852489348531e+00
9.299999999999999897e-07 1.057440653589930395e+26 5.409535961577539354e+00
9.399999999999999998e-07 1.055412881550133119e+26 5.409657242907418784e+00
9.500000000000000100e-07 1.053391242432901150e+26 5.409779687597565889e+00
9.600000000000001260e-07 1.051298866533991921e+26 5.409246514957878560e+00
9.700000000000000302e-07 1.049289679315323743e+26 5.409371246505672026e+00
9.799999999999999345e-07 1.047289437168386312e+26 5.409410401890200504e+00
9.900000000000000505e-07 1.045292687657743995e+26 5.409537395990308362e+00
9.999999999999999547e-07 1.043225893119974386e+26 5.409008340088313993e+00
1.010000000000000071e-06 1.041241775358616979e+26 5.409137567998592466e+00
1.019999999999999975e-06 1.039263946776747203e+26 5.409267916002569621e+00
1.030000000000000091e-06 1.037216597719049069e+26 5.408742072164779202e+00
1.039999999999999995e-06 1.035251504753847211e+26 5.408874629820110691e+00
1.050000000000000111e-06 1.033292752450213744e+26 5.409008300151384674e+00
1.060000000000000016e-06 1.031340360843979205e+26 5.409143077693814305e+00
1.069999999999999920e-06 1.029319086539593806e+26 5.408621517815933366e+00
1.080000000000000036e-06 1.027382268857314529e+26 5.408671170956957930e+00
1.089999999999999940e-06 1.025449140366493216e+26 5.408809221745123352e+00
1.100000000000000056e-06 1.023522428483841663e+26 5.408948374448954155e+00
1.109999999999999960e-06 1.021527451827647721e+26 5.408430802661610137e+00
1.120000000000000076e-06 1.019613805906260453e+26 5.408572145298517597e+00
1.129999999999999981e-06 1.017706492931046852e+26 5.408714581232871410e+00
1.140000000000000097e-06 1.015731383787342876e+26 5.408200192069284817e+00
1.150000000000000001e-06 1.013837067101157871e+26 5.408344810038758332e+00
1.160000000000000117e-06 1.011949206015975776e+26 5.408490527221841759e+00
1.170000000000000021e-06 1.010070484823547848e+26 5.408549664765363474e+00
1.179999999999999925e-06 1.008121850198325398e+26 5.408039245726647515e+00
1.190000000000000041e-06 1.006253466079075423e+26 5.408188191402146572e+00
1.199999999999999946e-06 1.004391538214622195e+26 5.408338221721922245e+00
1.210000000000000062e-06 1.002462800313132412e+26 5.407830957172099495e+00
1.219999999999999966e-06 1.000613864109374401e+26 5.407983129742673256e+00
1.230000000000000082e-06 9.987716605452406235e+25 5.408130831776174929e+00
1.239999999999999986e-06 9.968654226184822933e+25 5.407538420232491205e+00
1.250000000000000102e-06 9.950358692289527605e+25 5.407693741705418056e+00
1.260000000000000007e-06 9.932127278260386122e+25 5.407850123768383810e+00
1.270000000000000123e-06 9.913959898634043287e+25 5.408007556704356844e+00
1.280000000000000027e-06 9.895133260652527111e+25 5.407507244302875549e+00
1.289999999999999931e-06 9.877094393401423344e+25 5.407666747570178956e+00
1.300000000000000047e-06 9.859119082302824995e+25 5.407827284550584146e+00
1.309999999999999951e-06 9.840514557963001450e+25 5.407241376766013019e+00
1.320000000000000067e-06 9.822666697948301295e+25 5.407403922759543846e+00
1.329999999999999972e-06 9.804881856922889393e+25 5.407567492145775034e+00
1.340000000000000088e-06 9.786444967442293499e+25 5.407072912319000224e+00
1.349999999999999992e-06 9.768786442722802745e+25 5.407238509409324045e+00
1.360000000000000108e-06 9.751190330551316637e+25 5.407405123269617420e+00
1.370000000000000012e-06 9.733656442677174902e+25 5.407572747806470126e+00
1.380000000000000128e-06 9.715501831277581546e+25 5.406993162563485278e+00
1.390000000000000032e-06 9.698092452442167104e+25 5.407162755543775567e+00
1.399999999999999937e-06 9.680744502423464873e+25 5.407333353963864830e+00
1.410000000000000053e-06 9.662751696606925292e+25 5.406845426274071720e+00
1.419999999999999957e-06 9.645526509965411900e+25 5.407018022624963116e+00
1.430000000000000073e-06 9.628364717287550227e+25 5.407185923811819173e+00
1.439999999999999977e-06 9.610583983430120138e+25 5.406611590072629703e+00
1.450000000000000093e-06 9.593539707069972537e+25 5.406787130658163854e+00
1.459999999999999997e-06 9.576554613099658832e+25 5.406963671118873549e+00
1.470000000000000113e-06 9.558930054371183232e+25 5.406481357089752748e+00
1.480000000000000018e-06 9.542062833599423234e+25 5.406659884669021032e+00
1.490000000000000134e-06 9.525253507925188454e+25 5.406839406045631513e+00
1.500000000000000038e-06 9.507833122236128879e+25 5.406270303491874429e+00
1.509999999999999942e-06 9.491139091348763764e+25 5.406451755752049060e+00
1.520000000000000058e-06 9.474501696946140768e+25 5.406634192738885680e+00
1.529999999999999963e-06 9.457229858958813345e+25 5.406157454610514890e+00
1.540000000000000079e-06 9.440705256528217196e+25 5.406341841987216235e+00
1.549999999999999983e-06 9.424261764222221632e+25 5.406437385209277302e+00
1.560000000000000099e-06 9.407160598959614565e+25 5.405963222824238024e+00
1.570000000000000003e-06 9.390801694363115172e+25 5.406150459115209195e+00
1.580000000000000119e-06 9.374499911768878384e+25 5.406332846045902585e+00
1.590000000000000023e-06 9.357565658493228554e+25 5.405861547476365381e+00
1.599999999999999928e-06 9.341394471794128332e+25 5.405961442904716030e+00
1.610000000000000044e-06 9.325250670577137927e+25 5.406152413124671874e+00
1.619999999999999948e-06 9.308480894810179482e+25 5.405683624026457856e+00
1.630000000000000064e-06 9.292442704669231777e+25 5.405876468114782618e+00
1.639999999999999968e-06 9.276456397054645844e+25 5.406070246769630216e+00
1.650000000000000084e-06 9.259870944131141802e+25 5.405513719292594388e+00
1.659999999999999988e-06 9.243988030027663400e+25 5.405709314201238236e+00
1.670000000000000104e-06 9.228155939044560817e+25 5.405905841715630267e+00
1.680000000000000009e-06 9.211701702660993923e+25 5.405442349150526127e+00
1.690000000000000125e-06 9.195996278921614822e+25 5.405550146301811409e+00
1.700000000000000029e-06 9.180315318861032520e+25 5.405749420903896763e+00
1.709999999999999933e-06 9.164017656842339156e+25 5.405282519273712616e+00
1.720000000000000049e-06 9.148436054170187178e+25 5.405483647299019090e+00
1.729999999999999953e-06 9.132903299027739699e+25 5.405685706023905190e+00
1.740000000000000069e-06 9.116778558927890719e+25 5.405136533121080333e+00
1.749999999999999974e-06 9.101343208281886220e+25 5.405340399184176192e+00
1.760000000000000090e-06 9.085955750612162700e+25 5.405545190278002288e+00
1.769999999999999994e-06 9.069953520615073237e+25 5.405089480118812517e+00
1.780000000000000110e-06 9.054686650679361822e+25 5.405205070525709310e+00
1.790000000000000014e-06 9.039441620835393483e+25 5.405412563372749446e+00
1.800000000000000130e-06 9.023584239866847431e+25 5.404959293394457909e+00
1.810000000000000035e-06 9.008432800464626934e+25 5.405168601040130305e+00
1.819999999999999939e-06 8.993352291274021327e+25 5.405287706193016461e+00
1.830000000000000055e-06 8.977639790509686484e+25 5.404830856717172338e+00
1.839999999999999959e-06 8.962627121055827391e+25 5.405042786173901881e+00
1.850000000000000075e-06 8.947658435240977707e+25 5.405255590115310760e+00
1.859999999999999979e-06 8.932106926401787065e+25 5.404715959470595799e+00
1.870000000000000095e-06 8.917228078379240595e+25 5.404930466337510175e+00
1.880000000000000000e-06 8.901743516808960022e+25 5.404483758152186290e+00
1.890000000000000116e-06 8.886953293308918741e+25 5.404700024341235753e+00
1.900000000000000020e-06 8.872231394627026608e+25 5.404825634498276798e+00
1.909999999999999924e-06 8.856881467624784258e+25 5.404381271649545404e+00
1.920000000000000252e-06 8.842221875243390810e+25 5.404600117991047448e+00
1.930000000000000156e-06 8.827608030160655499e+25 5.404813801282993602e+00
1.940000000000000060e-06 8.812414993398417400e+25 5.404280237785182628e+00
1.949999999999999965e-06 8.797883767170517181e+25 5.404501654274343814e+00
1.959999999999999869e-06 8.783394633906085163e+25 5.404723947310745125e+00
1.970000000000000197e-06 8.768306941821942199e+25 5.404284652996715899e+00
1.980000000000000101e-06 8.753926366236427975e+25 5.404416715480938826e+00
1.990000000000000005e-06 8.739562588829082318e+25 5.404641578459701279e+00
1.999999999999999909e-06 8.724602599470902702e+25 5.404204628582344405e+00
2.010000000000000237e-06 8.710345724970659782e+25 5.404339228962416364e+00
2.020000000000000142e-06 8.695470161065574829e+25 5.403903731283629774e+00
2.030000000000000046e-06 8.681273203986979977e+25 5.404125918434257159e+00
2.039999999999999950e-06 8.667113421899017661e+25 5.404355055086941029e+00
2.049999999999999854e-06 8.652385957030360497e+25 5.403829834618331773e+00
2.060000000000000182e-06 8.638307236639125945e+25 5.404060633910002132e+00
2.070000000000000086e-06 8.624266772488043534e+25 5.404292273178485040e+00
2.079999999999999991e-06 8.609660781799396996e+25 5.403769309124146325e+00
2.089999999999999895e-06 8.595698826675136563e+25 5.404002576222969090e+00
2.100000000000000223e-06 8.581149005455482439e+25 5.403573445124889574e+00
2.110000000000000127e-06 8.567264566232842029e+25 5.403808393930273013e+00
2.120000000000000031e-06 8.553442389602458809e+25 5.403951648248415118e+00
2.129999999999999935e-06 8.539013403977537760e+25 5.403518590226200402e+00
2.139999999999999840e-06 8.525243323280155662e+25 5.403755957150012001e+00
2.150000000000000167e-06 8.511534751402434304e+25 5.403901591368587276e+00
2.160000000000000072e-06 8.497218879773330542e+25 5.403476903544405019e+00
2.169999999999999976e-06 8.483561235784316255e+25 5.403716678541779395e+00
2.179999999999999880e-06 8.469346064558987760e+25 5.403200846540491931e+00
2.190000000000000208e-06 8.455762469095495013e+25 5.403442212547461487e+00
2.200000000000000112e-06 8.442215350691179346e+25 5.403684399584013143e+00
2.210000000000000016e-06 8.428115745525674149e+25 5.403164551551214778e+00
2.219999999999999921e-06 8.414641537170303914e+25 5.403408321320195107e+00
2.230000000000000248e-06 8.400590020198640782e+25 5.402988998459287373e+00
2.240000000000000153e-06 8.387211667141130644e+25 5.403141461605661000e+00
2.250000000000000057e-06 8.373845104065831272e+25 5.403387656946954998e+00
2.259999999999999961e-06 8.359904592549577275e+25 5.402970578625525988e+00
2.269999999999999866e-06 8.346632686689234383e+25 5.403125423921184556e+00
2.280000000000000193e-06 8.333372125872515245e+25 5.403374030607585254e+00
2.290000000000000098e-06 8.319538732183280087e+25 5.402959169425815666e+00
2.300000000000000002e-06 8.306374419324157606e+25 5.403110107033394449e+00
2.309999999999999906e-06 8.292612718571800702e+25 5.402696602892854472e+00
2.320000000000000234e-06 8.279491086502311621e+25 5.402948399323071804e+00
2.330000000000000138e-06 8.266426868833687544e+25 5.403107895034668928e+00
2.340000000000000042e-06 8.252770371731571860e+25 5.402696556625802060e+00
2.349999999999999947e-06 8.239750644214798239e+25 5.402950677396201939e+00
2.359999999999999851e-06 8.226187165860777400e+25 5.402447595887046816e+00
2.370000000000000179e-06 8.213234554192168640e+25 5.402703233195597754e+00
2.380000000000000083e-06 8.200317834835934463e+25 5.402953351144350158e+00
2.389999999999999987e-06 8.186856594205526104e+25 5.402452332690684145e+00
2.399999999999999891e-06 8.174003144168197815e+25 5.402710235400746797e+00
2.410000000000000219e-06 8.160586513273996863e+25 5.402304035594997167e+00
2.420000000000000123e-06 8.147821655392659281e+25 5.402469947925851557e+00
2.430000000000000028e-06 8.135065848579315707e+25 5.402730119123419605e+00
2.439999999999999932e-06 8.121749043041186667e+25 5.402326025234625462e+00
2.450000000000000260e-06 8.109081941029653904e+25 5.402494156044198803e+00
2.460000000000000164e-06 8.095834268348960627e+25 5.402085038109388115e+00
2.470000000000000068e-06 8.083206878034929957e+25 5.402348268375577689e+00
2.479999999999999972e-06 8.070634008802152110e+25 5.402518611079886846e+00
2.489999999999999877e-06 8.057481135338464019e+25 5.402117940919135108e+00
2.500000000000000205e-06 8.044971260410357701e+25 5.402289805905758691e+00
2.510000000000000109e-06 8.031883264727237257e+25 5.401890454990240897e+00
2.520000000000000013e-06 8.019412972152371781e+25 5.402157460715575787e+00
2.529999999999999917e-06 8.006999088081766272e+25 5.402325176626363579e+00
2.540000000000000245e-06 7.994006506639174346e+25 5.401927934266752551e+00
2.550000000000000149e-06 7.981628668588473659e+25 5.402197186974076359e+00
2.560000000000000054e-06 7.968722170964653442e+25 5.401707573418609520e+00
2.569999999999999958e-06 7.956405324871968003e+25 5.401978301952484962e+00
2.579999999999999862e-06 7.943561463968470909e+25 5.401490005505848124e+00
2.590000000000000190e-06 7.931304999958261263e+25 5.401762202336505503e+00
2.600000000000000094e-06 7.919078309586906069e+25 5.402035150873384595e+00
2.609999999999999998e-06 7.906329337326445343e+25 5.401542460127730649e+00
2.619999999999999903e-06 7.894162205245565930e+25 5.401816842624853621e+00
2.630000000000000230e-06 7.881472752908918161e+25 5.401331831054057453e+00
2.640000000000000135e-06 7.869364582903520566e+25 5.401607645448236461e+00
2.650000000000000039e-06 7.857285488369601133e+25 5.401884193352334051e+00
