# z (um)	 Electron density (m^-3)
0.000000000000000000e+00 1.474212245367046580e+26 5.408048068118870511e+00
1.000000000000000021e-08 1.472484338149094800e+26 5.407965480476407905e+00
2.000000000000000042e-08 1.470763889005862178e+26 5.407883713152846106e+00
3.000000000000000394e-08 1.469050817294482528e+26 5.407802755034069264e+00
4.000000000000000084e-08 1.467341533540058368e+26 5.407806712749824385e+00
4.999999999999999774e-08 1.465535246130603404e+26 5.407064236130231016e+00
6.000000000000000787e-08 1.463843946133870455e+26 5.406985556116302050e+00
7.000000000000000477e-08 1.462159697363714197e+26 5.406907682721727504e+00
8.000000000000000167e-08 1.460482666675016401e+26 5.406831414342486930e+00
8.999999999999999857e-08 1.458808756431675962e+26 5.406839660383182533e+00
9.999999999999999547e-08 1.457145308080873436e+26 5.406764195653199323e+00
1.100000000000000056e-07 1.455488676782981349e+26 5.406689557706333638e+00
1.200000000000000157e-07 1.453838807458056620e+26 5.406615751546546278e+00
1.299999999999999994e-07 1.452192063227921569e+26 5.406627499951152771e+00
1.400000000000000095e-07 1.450555556202516766e+26 5.406555332337195985e+00
1.499999999999999932e-07 1.448925642001680544e+26 5.406484001528588657e+00
1.600000000000000033e-07 1.447302262520141933e+26 5.406413506324050822e+00
1.700000000000000135e-07 1.445685573158005112e+26 5.406344689722678787e+00
1.799999999999999971e-07 1.444071505457141827e+26 5.406360767563650249e+00
1.900000000000000073e-07 1.442467365367147481e+26 5.406292714820534862e+00
1.999999999999999909e-07 1.440869506982140277e+26 5.406225473887062982e+00
2.100000000000000011e-07 1.439277863342665585e+26 5.406159037014178104e+00
2.200000000000000112e-07 1.437688791037099029e+26 5.406178556679189562e+00
2.299999999999999949e-07 1.436004167082749190e+26 5.405449682091511221e+00
2.400000000000000315e-07 1.434430858385081499e+26 5.405385501947947979e+00
2.499999999999999887e-07 1.432863480099109497e+26 5.405322121436288541e+00
2.599999999999999988e-07 1.431302179394329702e+26 5.405260434251325741e+00
2.700000000000000090e-07 1.429742915957105397e+26 5.405284254802925403e+00
2.800000000000000191e-07 1.428192999530373042e+26 5.405223236379969265e+00
2.900000000000000292e-07 1.426648789852258086e+26 5.405163011349872093e+00
2.999999999999999864e-07 1.425110230514823010e+26 5.405103576713010227e+00
3.099999999999999966e-07 1.423577263920351509e+26 5.405044928765274648e+00
3.200000000000000067e-07 1.422046255977782883e+26 5.405072910063493552e+00
3.300000000000000168e-07 1.420524300612324052e+26 5.405015795238587550e+00
3.400000000000000270e-07 1.419007755848889380e+26 5.404959453274138070e+00
3.499999999999999842e-07 1.417496748004812096e+26 5.404904845658164980e+00
3.599999999999999943e-07 1.415990834404165257e+26 5.404850036733572338e+00
3.700000000000000044e-07 1.414386728041660199e+26 5.404130907787332738e+00
3.800000000000000146e-07 1.412887703291511856e+26 5.404163848329631925e+00
3.900000000000000247e-07 1.411397344692321027e+26 5.404111238124770011e+00
3.999999999999999819e-07 1.409912020501864397e+26 5.404059415612445960e+00
4.099999999999999920e-07 1.408431680250287244e+26 5.404008383519603775e+00
4.200000000000000022e-07 1.406956272441111732e+26 5.403958142870266101e+00
4.300000000000000123e-07 1.405482169645110911e+26 5.403995275136725063e+00
4.400000000000000224e-07 1.404016644513316392e+26 5.403947619592139873e+00
4.500000000000000326e-07 1.402555710209016337e+26 5.403899714078297833e+00
4.599999999999999898e-07 1.401099483620551787e+26 5.403852585174205636e+00
4.699999999999999999e-07 1.399647904276607715e+26 5.403806225563480226e+00
4.800000000000000630e-07 1.398200909377356529e+26 5.403760626945928180e+00
4.899999999999999672e-07 1.396754865580805935e+26 5.403802629110794342e+00
4.999999999999999774e-07 1.395214959931351441e+26 5.403092661776477179e+00
5.099999999999999875e-07 1.393781406506324122e+26 5.403049178927352258e+00
5.199999999999999976e-07 1.392352163899218744e+26 5.403006447615604557e+00
5.300000000000000078e-07 1.390927176715347056e+26 5.402964466602321991e+00
5.400000000000000179e-07 1.389506548527245998e+26 5.402924336948033535e+00
5.500000000000000281e-07 1.388086326991607151e+26 5.402971233002637597e+00
5.600000000000000382e-07 1.386673765051157720e+26 5.402931469313209334e+00
5.700000000000000483e-07 1.385265224668111154e+26 5.402892443754905294e+00
5.800000000000000585e-07 1.383860644833395034e+26 5.402854153063739062e+00
5.899999999999999627e-07 1.382459962852722170e+26 5.402816594051056853e+00
5.999999999999999728e-07 1.381063114324371358e+26 5.402779763937274105e+00
6.099999999999999830e-07 1.379569390135556147e+26 5.402076794838634122e+00
6.199999999999999931e-07 1.378176508736818966e+26 5.402129256133167523e+00
6.300000000000000033e-07 1.376790834817026244e+26 5.402094513052843716e+00
6.400000000000000134e-07 1.375408732247060120e+26 5.402060520584710979e+00
6.500000000000000235e-07 1.374030288385243712e+26 5.402028467031493975e+00
6.600000000000000337e-07 1.372655155284685113e+26 5.401995982661099482e+00
6.700000000000000438e-07 1.371283416956946947e+26 5.401964251930859717e+00
6.800000000000000539e-07 1.369915010338826323e+26 5.401933271845963169e+00
6.900000000000000641e-07 1.368546299631576841e+26 5.401991297511340662e+00
6.999999999999999683e-07 1.367184358424674156e+26 5.401961790337375113e+00
7.099999999999999785e-07 1.365825540938918080e+26 5.401933015383845849e+00
7.199999999999999886e-07 1.364370290148039426e+26 5.401237357703283060e+00
7.299999999999999987e-07 1.363017564418242709e+26 5.401209928527360482e+00
7.400000000000000089e-07 1.361667727775346942e+26 5.401183233966583508e+00
7.500000000000000190e-07 1.360320712057882866e+26 5.401157271169155116e+00
7.600000000000000291e-07 1.358972998228626590e+26 5.401222196159073619e+00
7.700000000000000393e-07 1.357631410871977419e+26 5.401197674471950982e+00
7.800000000000000494e-07 1.356292422192714802e+26 5.401173868153968272e+00
7.900000000000000595e-07 1.354955953005127310e+26 5.401150771303460552e+00
7.999999999999999638e-07 1.353621920217529174e+26 5.401128378030949584e+00
8.099999999999999739e-07 1.352290236175967289e+26 5.401106682813901827e+00
8.199999999999999841e-07 1.350862351935186019e+26 5.400417212394483357e+00
8.299999999999999942e-07 1.349535144477688514e+26 5.400396801056367657e+00
8.400000000000000043e-07 1.348206409820137529e+26 5.400466637238465317e+00
8.500000000000000145e-07 1.346883223532057361e+26 5.400447642021204864e+00
8.600000000000000246e-07 1.345561915032152404e+26 5.400429360532966960e+00
8.700000000000000347e-07 1.344242396681848458e+26 5.400411794976175628e+00
8.800000000000000449e-07 1.342924689495495709e+26 5.400396334103033880e+00
8.900000000000000550e-07 1.341608481966249776e+26 5.400380206934022986e+00
9.000000000000000652e-07 1.340293793235930697e+26 5.400364798541745337e+00
9.099999999999999694e-07 1.338882981975015554e+26 5.399680925109478835e+00
9.199999999999999795e-07 1.337571114024568631e+26 5.399666853725923588e+00
9.299999999999999897e-07 1.336256896271823461e+26 5.399743764137689972e+00
9.399999999999999998e-07 1.334947411447862863e+26 5.399731170183783568e+00
9.500000000000000100e-07 1.333638988337800749e+26 5.399719315957946186e+00
9.600000000000001260e-07 1.332331539683981505e+26 5.399708199719774449e+00
9.700000000000000302e-07 1.331024975929026631e+26 5.399697817556760704e+00
9.799999999999999345e-07 1.329719205089474399e+26 5.399688163750784753e+00
9.900000000000000505e-07 1.328414132782354700e+26 5.399679231307285221e+00
9.999999999999999547e-07 1.327013159481537651e+26 5.399002659086594491e+00
1.010000000000000071e-06 1.325709252065059595e+26 5.398995051826165792e+00
1.019999999999999975e-06 1.324405744298954444e+26 5.398988165383849847e+00
1.030000000000000091e-06 1.323098964764562244e+26 5.399073007991371576e+00
1.039999999999999995e-06 1.321795993679398910e+26 5.399067554762074117e+00
1.050000000000000111e-06 1.320493153963439389e+26 5.399062808958241533e+00
1.060000000000000016e-06 1.319190354269407110e+26 5.399058766340251836e+00
1.069999999999999920e-06 1.317887501930467581e+26 5.399055423029340162e+00
1.080000000000000036e-06 1.316488615539147214e+26 5.398382404853766303e+00
1.089999999999999940e-06 1.315185435132708832e+26 5.398380355180036894e+00
1.100000000000000056e-06 1.313881914660389612e+26 5.398379021604349681e+00
1.109999999999999960e-06 1.312577970655177418e+26 5.398378408339876700e+00
1.120000000000000076e-06 1.311273518841486474e+26 5.398378518887753330e+00
1.129999999999999981e-06 1.309968473790434192e+26 5.398379356017803943e+00
1.140000000000000097e-06 1.308662820166152474e+26 5.398382557637991574e+00
1.150000000000000001e-06 1.307356325051349727e+26 5.398384858355266047e+00
1.160000000000000117e-06 1.305950275092870049e+26 5.397808915113061268e+00
1.170000000000000021e-06 1.304642032607709795e+26 5.397812592892158534e+00
1.179999999999999925e-06 1.303332744264050768e+26 5.397817024496233351e+00
1.190000000000000041e-06 1.302022329368781852e+26 5.397822214083831227e+00
1.199999999999999946e-06 1.300710705552205917e+26 5.397828163541594115e+00
1.210000000000000062e-06 1.299397788392498020e+26 5.397834872531931616e+00
1.219999999999999966e-06 1.298083491152206067e+26 5.397842338711797971e+00
1.230000000000000082e-06 1.296767724709282743e+26 5.397850558114792641e+00
1.239999999999999986e-06 1.295356052569497816e+26 5.397187917717193528e+00
1.250000000000000102e-06 1.294037129923728047e+26 5.397197533904078526e+00
1.260000000000000007e-06 1.292716454638555852e+26 5.397207907837810126e+00
1.270000000000000123e-06 1.291393942044854647e+26 5.397219036716517593e+00
1.280000000000000027e-06 1.290069556560548337e+26 5.397232697836075843e+00
1.289999999999999931e-06 1.288743107297863463e+26 5.397245329453943086e+00
1.300000000000000047e-06 1.287414556672316374e+26 5.397258701794892310e+00
1.309999999999999951e-06 1.285990164230411409e+26 5.396600574064857270e+00
1.320000000000000067e-06 1.284657197220184781e+26 5.396615321379380603e+00
1.329999999999999972e-06 1.283321851443830343e+26 5.396630818295558463e+00
1.340000000000000088e-06 1.281984045939032379e+26 5.396647066178350549e+00
1.349999999999999992e-06 1.280643698974660220e+26 5.396664066100234081e+00
1.360000000000000108e-06 1.279300727886968331e+26 5.396681819056817986e+00
1.370000000000000012e-06 1.277955048937925436e+26 5.396700326144750370e+00
1.380000000000000128e-06 1.276513621089648549e+26 5.396046762316942136e+00
1.390000000000000032e-06 1.275162330449223216e+26 5.396066692332325943e+00
1.399999999999999937e-06 1.273808072021095044e+26 5.396087403832079410e+00
1.410000000000000053e-06 1.272450770389087518e+26 5.396108903096703102e+00
1.419999999999999957e-06 1.271090349052123286e+26 5.396131195071435904e+00
1.430000000000000073e-06 1.269726730128169487e+26 5.396154283316125344e+00
1.439999999999999977e-06 1.268359834109660153e+26 5.396178170035193844e+00
1.450000000000000093e-06 1.266897345748024510e+26 5.395531418885002317e+00
1.459999999999999997e-06 1.265523709007161579e+26 5.395556824950756614e+00
1.470000000000000113e-06 1.264146543968570015e+26 5.395583052048618988e+00
1.480000000000000018e-06 1.262765777337889711e+26 5.395610102341538372e+00
1.490000000000000134e-06 1.261381334259561595e+26 5.395637975747866300e+00
1.500000000000000038e-06 1.259993138137806690e+26 5.395666670149758204e+00
1.509999999999999942e-06 1.258601110532800096e+26 5.395696181924738433e+00
1.520000000000000058e-06 1.257113609634528006e+26 5.395052567549670997e+00
1.529999999999999963e-06 1.255713738471267649e+26 5.395083615075877859e+00
1.540000000000000079e-06 1.254309788529847955e+26 5.395115487549551503e+00
1.549999999999999983e-06 1.252901687719258665e+26 5.395148184264379587e+00
1.560000000000000099e-06 1.251489363043138590e+26 5.395181703607208945e+00
1.570000000000000003e-06 1.250072740587872023e+26 5.395216043499612368e+00
1.580000000000000119e-06 1.248560812090454971e+26 5.394576852902870812e+00
1.590000000000000023e-06 1.247135431840922150e+26 5.394612745228029027e+00
1.599999999999999928e-06 1.245705525354809721e+26 5.394649475059739352e+00
1.610000000000000044e-06 1.244271028132082445e+26 5.394687045608030473e+00
1.619999999999999948e-06 1.242831875331677467e+26 5.394725459226234143e+00
1.630000000000000064e-06 1.241388002636797972e+26 5.394766889488493256e+00
1.639999999999999968e-06 1.239939415629370720e+26 5.394807003564314307e+00
1.650000000000000084e-06 1.238395678004936307e+26 5.394173121961155282e+00
1.659999999999999988e-06 1.236937305831586879e+26 5.394214852112797942e+00
1.670000000000000104e-06 1.235473944029250440e+26 5.394257454305847688e+00
1.680000000000000009e-06 1.234005536948303053e+26 5.394300933945483933e+00
1.690000000000000125e-06 1.232532028563361653e+26 5.394345295152588982e+00
1.700000000000000029e-06 1.231056885060624479e+26 5.394294754777765100e+00
1.709999999999999933e-06 1.229483435767195481e+26 5.393665295955848649e+00
1.720000000000000049e-06 1.227994346488316456e+26 5.393712205723384834e+00
1.729999999999999953e-06 1.226499923360842113e+26 5.393760025170689865e+00
1.740000000000000069e-06 1.225000118032075475e+26 5.393808757020633671e+00
1.749999999999999974e-06 1.223494881507108220e+26 5.393858402100189409e+00
1.760000000000000090e-06 1.221984163977129025e+26 5.393908959650123514e+00
1.769999999999999994e-06 1.220378998251790067e+26 5.393284528557174440e+00
1.780000000000000110e-06 1.218857234189584713e+26 5.393336829071269989e+00
1.790000000000000014e-06 1.217329833193871452e+26 5.393390055985266329e+00
1.800000000000000130e-06 1.215796754344070713e+26 5.393444210144745732e+00
1.810000000000000035e-06 1.214257956481610200e+26 5.393499291299239218e+00
1.819999999999999939e-06 1.212628559620183902e+26 5.392782398370809638e+00
1.830000000000000055e-06 1.211078267392318384e+26 5.392839218764950537e+00
1.839999999999999959e-06 1.209522129989099303e+26 5.392896984613754441e+00
1.850000000000000075e-06 1.207960116410116545e+26 5.392955697569880691e+00
1.859999999999999979e-06 1.206392195713766004e+26 5.393015358152991823e+00
1.870000000000000095e-06 1.204818336965450897e+26 5.393075966111080533e+00
1.880000000000000000e-06 1.203150815020676737e+26 5.392463188406228625e+00
1.890000000000000116e-06 1.201565057706221176e+26 5.392525629538698517e+00
1.900000000000000020e-06 1.199976735449430242e+26 5.392492122342531502e+00
1.909999999999999924e-06 1.198378894101746381e+26 5.392556461855556371e+00
1.920000000000000252e-06 1.196774985607923027e+26 5.392621776374905807e+00
1.930000000000000156e-06 1.195077933256703308e+26 5.392010700611527874e+00
1.940000000000000060e-06 1.193461912582445697e+26 5.392077900150902714e+00
1.949999999999999965e-06 1.191839772632289171e+26 5.392146099456934571e+00
1.959999999999999869e-06 1.190211508955600841e+26 5.392215302827918499e+00
1.970000000000000197e-06 1.188580552225861075e+26 5.392188479169413462e+00
1.980000000000000101e-06 1.186940029019691037e+26 5.392259655099481463e+00
1.990000000000000005e-06 1.185207011822702268e+26 5.391653843396390755e+00
1.999999999999999909e-06 1.183554297097339507e+26 5.391726970234937966e+00
2.010000000000000237e-06 1.181895443894545207e+26 5.391801124570823944e+00
2.020000000000000142e-06 1.180230462191353849e+26 5.391876308158363607e+00
2.030000000000000046e-06 1.178559363027851564e+26 5.391952521330652282e+00
2.039999999999999950e-06 1.176799816552498980e+26 5.391254070035881973e+00
2.049999999999999854e-06 1.175116595955402603e+26 5.391332231399619701e+00
2.060000000000000182e-06 1.173427296509851451e+26 5.391411440312711356e+00
2.070000000000000086e-06 1.171731944251147511e+26 5.391491697564514851e+00
2.079999999999999991e-06 1.170030566734414196e+26 5.391573002610384080e+00
2.089999999999999895e-06 1.168241448564112747e+26 5.390879094411838324e+00
2.100000000000000223e-06 1.166528187217372101e+26 5.390962382645992257e+00
2.110000000000000127e-06 1.164808991552173555e+26 5.391046734572238819e+00
2.120000000000000031e-06 1.163083905855305988e+26 5.391132150840924453e+00
2.129999999999999935e-06 1.161352976429828441e+26 5.391218631053097177e+00
2.139999999999999840e-06 1.159535187365292795e+26 5.390529358240995883e+00
2.150000000000000167e-06 1.157792797404043647e+26 5.390617856625960158e+00
2.160000000000000072e-06 1.156044714461048461e+26 5.390707436949667475e+00
2.169999999999999976e-06 1.154291004065750269e+26 5.390798100964042661e+00
2.179999999999999880e-06 1.152531734665802140e+26 5.390889849417557222e+00
2.190000000000000208e-06 1.150686448091439747e+26 5.390205312975422380e+00
2.200000000000000112e-06 1.148916360117153162e+26 5.390299124853093815e+00
2.210000000000000016e-06 1.147140937542582919e+26 5.390394042306291489e+00
2.219999999999999921e-06 1.145360273634424069e+26 5.390490067839672328e+00
2.230000000000000248e-06 1.143491153202662005e+26 5.389907108065537855e+00
2.240000000000000153e-06 1.141703697817564962e+26 5.389907548667720150e+00
2.250000000000000057e-06 1.139908011941280647e+26 5.390006817574248821e+00
2.259999999999999961e-06 1.138107542412467261e+26 5.390107218612060436e+00
2.269999999999999866e-06 1.136302436557736378e+26 5.390208750667426330e+00
2.280000000000000193e-06 1.134413453141666994e+26 5.389533083384698386e+00
2.290000000000000098e-06 1.132599591966610362e+26 5.389636764373109123e+00
2.300000000000000002e-06 1.130781521642969246e+26 5.389741585399045576e+00
2.309999999999999906e-06 1.128959389288180865e+26 5.389847543223024395e+00
2.320000000000000234e-06 1.127133339434871816e+26 5.389954632892127506e+00
2.330000000000000138e-06 1.125224751774168614e+26 5.389283993599848444e+00
2.340000000000000042e-06 1.123391374828848704e+26 5.389393226431510087e+00
2.349999999999999947e-06 1.121554496885751320e+26 5.389503593106124590e+00
2.359999999999999851e-06 1.119714261443873826e+26 5.389615090121114171e+00
2.370000000000000179e-06 1.117792578565122038e+26 5.388948455431161300e+00
2.380000000000000083e-06 1.115946134803873711e+26 5.389062099277969864e+00
2.389999999999999987e-06 1.114096748587967145e+26 5.389176882120597867e+00
2.399999999999999891e-06 1.112244563115906441e+26 5.389292803061103143e+00
2.410000000000000219e-06 1.110312020093123444e+26 5.388630204859539141e+00
2.420000000000000123e-06 1.108454742300090409e+26 5.388748296063552878e+00
2.430000000000000028e-06 1.106595078850946293e+26 5.388867540238836185e+00
2.439999999999999932e-06 1.104733171796350581e+26 5.388987937480024470e+00
2.450000000000000260e-06 1.102872327641396070e+26 5.389011958231288979e+00
2.460000000000000164e-06 1.100926111717626841e+26 5.388452023543657710e+00
2.470000000000000068e-06 1.099058384374940295e+26 5.388575769596323006e+00
2.479999999999999972e-06 1.097188950214122581e+26 5.388700677659727489e+00
2.489999999999999877e-06 1.095321088363003518e+26 5.388729190330986185e+00
2.500000000000000205e-06 1.093368964247479577e+26 5.388173425180120546e+00
2.510000000000000109e-06 1.091495298926528558e+26 5.388301706501441579e+00
2.520000000000000013e-06 1.089620448959937122e+26 5.388431155317669585e+00
2.529999999999999917e-06 1.087747665808500290e+26 5.388464182551436110e+00
2.540000000000000245e-06 1.085791712897610542e+26 5.387912613436190767e+00
2.550000000000000149e-06 1.083914173947969560e+26 5.388045441495954435e+00
2.560000000000000054e-06 1.082036032495184326e+26 5.388179438456363712e+00
2.569999999999999958e-06 1.080160358838288253e+26 5.388216972909605218e+00
2.579999999999999862e-06 1.078202588304670162e+26 5.387669594843304210e+00
2.590000000000000190e-06 1.076323170386297168e+26 5.387806949559164060e+00
2.600000000000000094e-06 1.074446636075960744e+26 5.387847862325646275e+00
2.609999999999999998e-06 1.072566954653852171e+26 5.387987468953044257e+00
2.619999999999999903e-06 1.070609302795604496e+26 5.387444254450865166e+00
2.630000000000000230e-06 1.068730037978778621e+26 5.387582692609086621e+00
2.640000000000000135e-06 1.066853988940200703e+26 5.387628029736743152e+00
2.650000000000000039e-06 1.064975277705260172e+26 5.387772090084607335e+00
