# z (um)	 Electron density (m^-3)
0.000000000000000000e+00 5.763514881935016187e+26 5.378504534840642393e+00
1.000000000000000021e-08 5.717618083833706310e+26 5.377842131165996520e+00
2.000000000000000042e-08 5.671225329484924535e+26 5.377128717756441745e+00
3.000000000000000394e-08 5.625966507844239073e+26 5.377146224953510689e+00
4.000000000000000084e-08 5.582204086797663851e+26 5.376558382293894489e+00
4.999999999999999774e-08 5.537926441271017806e+26 5.375919903077532425e+00
6.000000000000000787e-08 5.495505681072405146e+26 5.375383801867227085e+00
7.000000000000000477e-08 5.452568782181224461e+26 5.374777506529342830e+00
8.000000000000000167e-08 5.410439884285153998e+26 5.374214064834963445e+00
8.999999999999999857e-08 5.369926718772278480e+26 5.373750250343857005e+00
9.999999999999999547e-08 5.328864647166183751e+26 5.373252483930229140e+00
1.100000000000000056e-07 5.289551243380642003e+26 5.372837346594392827e+00
1.200000000000000157e-07 5.249689464785955935e+26 5.372370187507430117e+00
1.299999999999999994e-07 5.210407798936161621e+26 5.371925150512282698e+00
1.400000000000000095e-07 5.172815630399281435e+26 5.371487299448140185e+00
1.499999999999999932e-07 5.134649237757714943e+26 5.371088595317507597e+00
1.600000000000000033e-07 5.097026949006751488e+26 5.370712841467185861e+00
1.700000000000000135e-07 5.059571885844770048e+26 5.369653738694436740e+00
1.799999999999999971e-07 5.024248341971948259e+26 5.369322294066131818e+00
1.900000000000000073e-07 4.988193664988892288e+26 5.369014809833124957e+00
1.999999999999999909e-07 4.952633448550493952e+26 5.368728103134236207e+00
2.100000000000000011e-07 4.917578750237950971e+26 5.368365080830163727e+00
2.200000000000000112e-07 4.883676921194687865e+26 5.367511157456719140e+00
2.299999999999999949e-07 4.849574405252482609e+26 5.367189665598123938e+00
2.400000000000000315e-07 4.815927101806174598e+26 5.366988472479715000e+00
2.499999999999999887e-07 4.782745412761490642e+26 5.366726233224132336e+00
2.599999999999999988e-07 4.749658337315806775e+26 5.365856335575982072e+00
2.700000000000000090e-07 4.717533120171714379e+26 5.365615797663022768e+00
2.800000000000000191e-07 4.686659872667184999e+26 5.365593959520314371e+00
2.900000000000000292e-07 4.654898707668178838e+26 5.364683327203509045e+00
2.999999999999999864e-07 4.623879927597869957e+26 5.364519240063259531e+00
3.099999999999999966e-07 4.592934309064969888e+26 5.363748052030590685e+00
3.200000000000000067e-07 4.562744312100484084e+26 5.363603886072970006e+00
3.300000000000000168e-07 4.532944086951175804e+26 5.363497399244453234e+00
3.400000000000000270e-07 4.503208308745140794e+26 5.362680160321764866e+00
3.499999999999999842e-07 4.474165781002832695e+26 5.362714011773598521e+00
3.599999999999999943e-07 4.446142781688257543e+26 5.362015435299642974e+00
3.700000000000000044e-07 4.418000818606156769e+26 5.361982492101581954e+00
3.800000000000000146e-07 4.389749958557333639e+26 5.361238363868976897e+00
3.900000000000000247e-07 4.362168366240740353e+26 5.361242468105456460e+00
3.999999999999999819e-07 4.334615914400360354e+26 5.360551538841722419e+00
4.099999999999999920e-07 4.307412554813082362e+26 5.359860349965666515e+00
4.200000000000000022e-07 4.280841518058701514e+26 5.359917022139680576e+00
4.300000000000000123e-07 4.254302987557045248e+26 5.359259070860733054e+00
4.400000000000000224e-07 4.228376072748284196e+26 5.359350084592420238e+00
4.500000000000000326e-07 4.202468651458399410e+26 5.358726581880351780e+00
4.599999999999999898e-07 4.177020007184472355e+26 5.358030035809433933e+00
4.699999999999999999e-07 4.152027340088592995e+26 5.358169378325242427e+00
4.800000000000000630e-07 4.127029579924483995e+26 5.357593953089402561e+00
4.899999999999999672e-07 4.102338348687936692e+26 5.356944416315203128e+00
4.999999999999999774e-07 4.078217930840051646e+26 5.357133067567890983e+00
5.099999999999999875e-07 4.054105154830355929e+26 5.356602306049775386e+00
5.199999999999999976e-07 4.030276866698426980e+26 5.355997883669801674e+00
5.300000000000000078e-07 4.007008113781541597e+26 5.356232636850225326e+00
5.400000000000000179e-07 3.983730785576975405e+26 5.355657913210959187e+00
5.500000000000000281e-07 3.960883029334677410e+26 5.355078150942570225e+00
5.600000000000000382e-07 3.938141472495454375e+26 5.354641629344851772e+00
5.700000000000000483e-07 3.915677751949660172e+26 5.354109403850878302e+00
5.800000000000000585e-07 3.892927111130562632e+26 5.354225267528888388e+00
5.899999999999999627e-07 3.870974129511690016e+26 5.353831293842952199e+00
5.999999999999999728e-07 3.849293130074740418e+26 5.353321891846150926e+00
6.099999999999999830e-07 3.827854253999170201e+26 5.352845377768918667e+00
6.199999999999999931e-07 3.806659808458379783e+26 5.352382507917615051e+00
6.300000000000000033e-07 3.785968756695358239e+26 5.352761957372805135e+00
6.400000000000000134e-07 3.765388471464651831e+26 5.352326163086635447e+00
6.500000000000000235e-07 3.744892638110076088e+26 5.351906921283574370e+00
6.600000000000000337e-07 3.724632949832833624e+26 5.351497075786622482e+00
6.700000000000000438e-07 3.704588485520185510e+26 5.351100883108823147e+00
6.800000000000000539e-07 3.683975123523973230e+26 5.350637382486078231e+00
6.900000000000000641e-07 3.664362788584643746e+26 5.350266701201828567e+00
6.999999999999999683e-07 3.644959318989284597e+26 5.349911170749559020e+00
7.099999999999999785e-07 3.625758494460662202e+26 5.349565408151635282e+00
7.199999999999999886e-07 3.606755318507381515e+26 5.349326013623324272e+00
7.299999999999999987e-07 3.588085821610696386e+26 5.349008085389659328e+00
7.400000000000000089e-07 3.568724624955261382e+26 5.348617751605810433e+00
7.500000000000000190e-07 3.550308493513871294e+26 5.348342560032428139e+00
7.600000000000000291e-07 3.532089264727066803e+26 5.348059445519736776e+00
7.700000000000000393e-07 3.514052652741623258e+26 5.347788971862164509e+00
7.800000000000000494e-07 3.496215582404147097e+26 5.347527924904523111e+00
7.900000000000000595e-07 3.477823569587830899e+26 5.347195578248980397e+00
7.999999999999999638e-07 3.460351352642295908e+26 5.346962137490774758e+00
8.099999999999999739e-07 3.443071403239061876e+26 5.346734926364495877e+00
8.199999999999999841e-07 3.426098709207609019e+26 5.346523634428147709e+00
8.299999999999999942e-07 3.408458988837740683e+26 5.346238806184579140e+00
8.400000000000000043e-07 3.391720297598155530e+26 5.346048611075933543e+00
8.500000000000000145e-07 3.375164211018137118e+26 5.345868370812045356e+00
8.600000000000000246e-07 3.358790769191242263e+26 5.345591355893121843e+00
8.700000000000000347e-07 3.341869424099777278e+26 5.345372859706693625e+00
8.800000000000000449e-07 3.325830191878478498e+26 5.345228618899861672e+00
8.900000000000000550e-07 3.309967892250800865e+26 5.345097320301413824e+00
9.000000000000000652e-07 3.294267700204522655e+26 5.344976841174023718e+00
9.099999999999999694e-07 3.277936578561818368e+26 5.344063703581344527e+00
9.199999999999999795e-07 3.262576635664913857e+26 5.343976566451592802e+00
9.299999999999999897e-07 3.247388714138546216e+26 5.343936216171075948e+00
9.399999999999999998e-07 3.231702165109599704e+26 5.343824719778329957e+00
9.500000000000000100e-07 3.216725149796945241e+26 5.343625117885816955e+00
9.600000000000001260e-07 3.201881188805009722e+26 5.343546852089340327e+00
9.700000000000000302e-07 3.186946170117647489e+26 5.342751172600801901e+00
9.799999999999999345e-07 3.171713765836269141e+26 5.342629332684546206e+00
9.900000000000000505e-07 3.157290129265314767e+26 5.342579400492822650e+00
9.999999999999999547e-07 3.143130468707492453e+26 5.342538747535387600e+00
1.010000000000000071e-06 3.128330499333699548e+26 5.342312882573127197e+00
1.019999999999999975e-06 3.114076717415175512e+26 5.341582896486207765e+00
1.030000000000000091e-06 3.100185612570665898e+26 5.341569461993790568e+00
1.039999999999999995e-06 3.085778247677031937e+26 5.341482268392896415e+00
1.050000000000000111e-06 3.072153009167695044e+26 5.341374850394203122e+00
1.060000000000000016e-06 3.058637442005379811e+26 5.341408534110437145e+00
1.069999999999999920e-06 3.044393834493295168e+26 5.340618471538014944e+00
1.080000000000000036e-06 3.031131566967142582e+26 5.340648762415460382e+00
1.089999999999999940e-06 3.017489924620339698e+26 5.340513521991640644e+00
1.100000000000000056e-06 3.004249121295192154e+26 5.339831081302676807e+00
1.109999999999999960e-06 2.991338710473098283e+26 5.339907302310082926e+00
1.120000000000000076e-06 2.977928799890554272e+26 5.339888558879105851e+00
1.129999999999999981e-06 2.965264133409503840e+26 5.339848859531715952e+00
1.140000000000000097e-06 2.952482496104998370e+26 5.339219634773949785e+00
1.150000000000000001e-06 2.939421237717488098e+26 5.339225466433550338e+00
1.160000000000000117e-06 2.927092300966977287e+26 5.339210169360860014e+00
1.170000000000000021e-06 2.914039149670813316e+26 5.338522008587598400e+00
1.179999999999999925e-06 2.902043980884946915e+26 5.338634658532428467e+00
1.190000000000000041e-06 2.890032650638359416e+26 5.338664110595564338e+00
1.199999999999999946e-06 2.877314877897005630e+26 5.337978344765426542e+00
1.210000000000000062e-06 2.865505142720023565e+26 5.338135484384700646e+00
1.219999999999999966e-06 2.853218071190741670e+26 5.338084596308023677e+00
1.230000000000000082e-06 2.841405509444591939e+26 5.337525128834554877e+00
1.239999999999999986e-06 2.829317613074655050e+26 5.337601456834540237e+00
1.250000000000000102e-06 2.817919992167493952e+26 5.337676881092537684e+00
1.260000000000000007e-06 2.806533995520362575e+26 5.337118330845807890e+00
1.270000000000000123e-06 2.794748973863620372e+26 5.337125693945304228e+00
1.280000000000000027e-06 2.783434445615686901e+26 5.336581251627118050e+00
1.289999999999999931e-06 2.771836441108595551e+26 5.336715154166703279e+00
1.300000000000000047e-06 2.760920366314948779e+26 5.336805460050296546e+00
1.309999999999999951e-06 2.749311801174090787e+26 5.336220237093463048e+00
1.320000000000000067e-06 2.738578725863747689e+26 5.336324343587367736e+00
1.329999999999999972e-06 2.727157642191345598e+26 5.335752612137777184e+00
1.340000000000000088e-06 2.716590073702308062e+26 5.336003951797745337e+00
1.349999999999999992e-06 2.706045355254109262e+26 5.335394700225229769e+00
1.360000000000000108e-06 2.695092383615415361e+26 5.335576764836066133e+00
1.370000000000000012e-06 2.684796477962266175e+26 5.335714600687568421e+00
1.380000000000000128e-06 2.673823353016732065e+26 5.335175826107782626e+00
1.390000000000000032e-06 2.663690825922406219e+26 5.335348296892231446e+00
1.399999999999999937e-06 2.652895609370482958e+26 5.334800868150487041e+00
1.410000000000000053e-06 2.642927697135434220e+26 5.334986354932268249e+00
1.419999999999999957e-06 2.632296342509001134e+26 5.334473212129094755e+00
1.430000000000000073e-06 2.622613282313016618e+26 5.334650107670748653e+00
1.439999999999999977e-06 2.612146927548653541e+26 5.334149535872545478e+00
1.450000000000000093e-06 2.602497185151696597e+26 5.334360685909712352e+00
1.459999999999999997e-06 2.592197476486408011e+26 5.333850823535123631e+00
1.470000000000000113e-06 2.582701644594615641e+26 5.334074542887045745e+00
1.480000000000000018e-06 2.572554977552618241e+26 5.333598693481595099e+00
1.490000000000000134e-06 2.563209601362864119e+26 5.333834824489188442e+00
1.500000000000000038e-06 2.553222399961811800e+26 5.333349142090779260e+00
1.509999999999999942e-06 2.544024077415116191e+26 5.333597413459854053e+00
1.520000000000000058e-06 2.534300023946404786e+26 5.333145632554679771e+00
1.529999999999999963e-06 2.525250147562710047e+26 5.333383851264011710e+00
1.540000000000000079e-06 2.515556497545937570e+26 5.332943375781609596e+00
1.549999999999999983e-06 2.506642168833367244e+26 5.333215180335627359e+00
1.560000000000000099e-06 2.497092818926319957e+26 5.332785988706308267e+00
1.570000000000000003e-06 2.488139238872956251e+26 5.332310498327238690e+00
1.580000000000000119e-06 2.478912124541628866e+26 5.332628830496449091e+00
1.590000000000000023e-06 2.470089006697701977e+26 5.332186297558315857e+00
1.599999999999999928e-06 2.461121167807412770e+26 5.332403330734774016e+00
1.610000000000000044e-06 2.451924501851121014e+26 5.331979015072796813e+00
1.619999999999999948e-06 2.443477916462726779e+26 5.332289473738355490e+00
1.630000000000000064e-06 2.434409913653292506e+26 5.331897890686199126e+00
1.639999999999999968e-06 2.425913487007309981e+26 5.331481781067276771e+00
1.650000000000000084e-06 2.417152948955363656e+26 5.331837941450818796e+00
1.659999999999999988e-06 2.408786775589815319e+26 5.331409837179451827e+00
1.670000000000000104e-06 2.400160068335304073e+26 5.331663919033121424e+00
1.680000000000000009e-06 2.392019513022860864e+26 5.331381430169713553e+00
1.690000000000000125e-06 2.383343320903191369e+26 5.330908257841896258e+00
1.700000000000000029e-06 2.374901104228333623e+26 5.331268232734536205e+00
1.709999999999999933e-06 2.366834209370045994e+26 5.330888102672092010e+00
1.720000000000000049e-06 2.358514782600538428e+26 5.331168225993096144e+00
1.729999999999999953e-06 2.350558113356465707e+26 5.330910960943469945e+00
1.740000000000000069e-06 2.342186248173810812e+26 5.330463062083236281e+00
1.749999999999999974e-06 2.334526291824254421e+26 5.330818807517750280e+00
1.760000000000000090e-06 2.326377595008182945e+26 5.330493765228431435e+00
1.769999999999999994e-06 2.318181374991882338e+26 5.330060597949206169e+00
1.780000000000000110e-06 2.310676912084678068e+26 5.330566528302361995e+00
1.790000000000000014e-06 2.302594053339650146e+26 5.330142900795380001e+00
1.800000000000000130e-06 2.295036608631715132e+26 5.329807019122338119e+00
1.810000000000000035e-06 2.287229973866190567e+26 5.330221604846076211e+00
1.819999999999999939e-06 2.279313890824976470e+26 5.329811862384149279e+00
1.830000000000000055e-06 2.271916254067348352e+26 5.329489691268592289e+00
1.839999999999999959e-06 2.264378336471737775e+26 5.329941128175451404e+00
1.850000000000000075e-06 2.257083599757633209e+26 5.329627833273892890e+00
1.859999999999999979e-06 2.249380747098706959e+26 5.329235907688289586e+00
1.870000000000000095e-06 2.241898723152826726e+26 5.329564764402520360e+00
1.880000000000000000e-06 2.234749334691718915e+26 5.329377278113074823e+00
1.890000000000000116e-06 2.227201646093494000e+26 5.328998180426798292e+00
1.900000000000000020e-06 2.220157175775798254e+26 5.328706466960917432e+00
1.909999999999999924e-06 2.212865145195445295e+26 5.329188216649175303e+00
1.920000000000000252e-06 2.205578594652359839e+26 5.328822101972577663e+00
1.930000000000000156e-06 2.198678488364507728e+26 5.328543049849184143e+00
1.940000000000000060e-06 2.191537227931652820e+26 5.329014781847421389e+00
1.949999999999999965e-06 2.184286757477917151e+26 5.328660952470502643e+00
1.959999999999999869e-06 2.177527234279260893e+26 5.328394472447937069e+00
1.970000000000000197e-06 2.170372148133589653e+26 5.328049088648064924e+00
1.980000000000000101e-06 2.163855574583818327e+26 5.328644004231628983e+00
1.990000000000000005e-06 2.156793664539095427e+26 5.328306964147738078e+00
1.999999999999999909e-06 2.149888034225770484e+26 5.327974385915637434e+00
2.010000000000000237e-06 2.143514684996116977e+26 5.328446095545502637e+00
2.020000000000000142e-06 2.136584191390388110e+26 5.328234359924166164e+00
2.030000000000000046e-06 2.129705505788207832e+26 5.327913750417815564e+00
2.039999999999999950e-06 2.123302256480217089e+26 5.327680383852050561e+00
2.049999999999999854e-06 2.116666395229055007e+26 5.328108389710142667e+00
2.060000000000000182e-06 2.109914224264454268e+26 5.327912628905817627e+00
2.070000000000000086e-06 2.103637847718465396e+26 5.327690969796741172e+00
2.079999999999999991e-06 2.097085954376511451e+26 5.327390159247001655e+00
2.089999999999999895e-06 2.090468863005867403e+26 5.327092873581260157e+00
2.100000000000000223e-06 2.084466173748517099e+26 5.327713133415057811e+00
2.110000000000000127e-06 2.077932190346187249e+26 5.327423152602668743e+00
2.120000000000000031e-06 2.071440140711352173e+26 5.327136799119996269e+00
2.129999999999999935e-06 2.065406882026073727e+26 5.326937315468589063e+00
2.139999999999999840e-06 2.059140254452183968e+26 5.327512288432888710e+00
2.150000000000000167e-06 2.052769687794110185e+26 5.327236557940812745e+00
2.160000000000000072e-06 2.046959845397793647e+26 5.327047810336245526e+00
2.169999999999999976e-06 2.040668132472966136e+26 5.326779074452580254e+00
2.179999999999999880e-06 2.034416108948205644e+26 5.326513829443250359e+00
2.190000000000000208e-06 2.028754629361975534e+26 5.327189843151817428e+00
2.200000000000000112e-06 2.022579126284158642e+26 5.326931513205980906e+00
2.210000000000000016e-06 2.016442338293068737e+26 5.326676655916523728e+00
2.219999999999999921e-06 2.010753138879712802e+26 5.326485184875135559e+00
2.230000000000000248e-06 2.004797809730363370e+26 5.326237425746573884e+00
2.240000000000000153e-06 1.998919400159652154e+26 5.326734745650973935e+00
2.250000000000000057e-06 1.992926735847833461e+26 5.326606829928287823e+00
2.259999999999999961e-06 1.987376793687695281e+26 5.326452605456613476e+00
2.269999999999999866e-06 1.981462502842732125e+26 5.326218523693396101e+00
2.280000000000000193e-06 1.975584801050350315e+26 5.325987885667310628e+00
2.290000000000000098e-06 1.970139475397081098e+26 5.325844033606102812e+00
2.300000000000000002e-06 1.964475920157300167e+26 5.326362274645712880e+00
2.309999999999999906e-06 1.958804449161032389e+26 5.326255011659632999e+00
2.320000000000000234e-06 1.953460703311999765e+26 5.326121199584983756e+00
2.330000000000000138e-06 1.947758399930199986e+26 5.325907339400133722e+00
2.340000000000000042e-06 1.942090859859732167e+26 5.325696716742560177e+00
2.349999999999999947e-06 1.936457730429896302e+26 5.325489287164662855e+00
2.359999999999999851e-06 1.931246119701374258e+26 5.325368381449100852e+00
2.370000000000000179e-06 1.925814522714544463e+26 5.326022701831335304e+00
2.380000000000000083e-06 1.920385839463414375e+26 5.325824603524647927e+00
2.389999999999999987e-06 1.915269362738391838e+26 5.325712826277220202e+00
2.399999999999999891e-06 1.909804572750051945e+26 5.325497100209072521e+00
2.410000000000000219e-06 1.904368482007953255e+26 5.325307899431716230e+00
2.420000000000000123e-06 1.898964697390820752e+26 5.325121616270984681e+00
2.430000000000000028e-06 1.893972102439036619e+26 5.325021598259916722e+00
2.439999999999999932e-06 1.888768612123353405e+26 5.325583827821771976e+00
2.450000000000000260e-06 1.883453413374473632e+26 5.325519379583950830e+00
2.460000000000000164e-06 1.878278765065584262e+26 5.325344537820279278e+00
2.470000000000000068e-06 1.873405783208816787e+26 5.325255927035324355e+00
2.479999999999999972e-06 1.868187998713729303e+26 5.325086867357807563e+00
2.489999999999999877e-06 1.863000930790184146e+26 5.324920680023765840e+00
2.500000000000000205e-06 1.857844357632309761e+26 5.324757374658017461e+00
2.510000000000000109e-06 1.853088125857903484e+26 5.324680291750687466e+00
2.520000000000000013e-06 1.847990812954662385e+26 5.324522802392730014e+00
2.529999999999999917e-06 1.843026663636103773e+26 5.324368087681243367e+00
2.540000000000000245e-06 1.838489587278629024e+26 5.325042834032824857e+00
2.550000000000000149e-06 1.833474684216346336e+26 5.325007300932633747e+00
2.560000000000000054e-06 1.828494211760247590e+26 5.324861442331347838e+00
2.569999999999999958e-06 1.823542761311526041e+26 5.324718442052551737e+00
2.579999999999999862e-06 1.818982536747443521e+26 5.324661520837759454e+00
2.590000000000000190e-06 1.814087260387507654e+26 5.324524173590877041e+00
2.600000000000000094e-06 1.809322881478118492e+26 5.324389371898377910e+00
2.609999999999999998e-06 1.804483716978557078e+26 5.324257545525878932e+00
2.619999999999999903e-06 1.800030556132318924e+26 5.324211656056111686e+00
2.630000000000000230e-06 1.795245560854130748e+26 5.324085238931513864e+00
2.640000000000000135e-06 1.790487830575892309e+26 5.323961470797323514e+00
2.650000000000000039e-06 1.785757125246176686e+26 5.323840314799575424e+00
