# z (um)	 Electron density (m^-3)
0.000000000000000000e+00 4.304547681594376926e+26 4.559258425869048281e+00
1.000000000000000021e-08 4.275487404462339253e+26 4.558884430009531030e+00
2.000000000000000042e-08 4.246815316591120546e+26 4.558527304436879923e+00
3.000000000000000394e-08 4.219106591320854355e+26 4.557656262223826360e+00
4.000000000000000084e-08 4.191371305807232941e+26 4.557324684186770725e+00
4.999999999999999774e-08 4.163818258875886282e+26 4.557008591321415558e+00
6.000000000000000787e-08 4.136618310040271635e+26 4.556703818177214593e+00
7.000000000000000477e-08 4.109452093843299159e+26 4.555774006081815486e+00
8.000000000000000167e-08 4.082958467909598745e+26 4.555533445843101603e+00
8.999999999999999857e-08 4.057666418685632392e+26 4.555347661724531427e+00
9.999999999999999547e-08 4.031514938770074277e+26 4.554459646775495862e+00
1.100000000000000056e-07 4.006177838830586845e+26 4.554222196550919755e+00
1.200000000000000157e-07 3.980991556790425941e+26 4.554030501646479046e+00
1.299999999999999994e-07 3.955800866158862241e+26 4.553180939861531051e+00
1.400000000000000095e-07 3.931231349285169206e+26 4.552982900876176409e+00
1.499999999999999932e-07 3.906974214344013044e+26 4.552832217864296815e+00
1.600000000000000033e-07 3.882693406260020780e+26 4.552017517284856041e+00
1.700000000000000135e-07 3.859027024980124421e+26 4.551891441838245456e+00
1.799999999999999971e-07 3.835819111854939733e+26 4.551749410763193282e+00
1.900000000000000073e-07 3.812421639548577793e+26 4.550972264936915757e+00
1.999999999999999909e-07 3.790452765151329918e+26 4.550970240593866123e+00
2.100000000000000011e-07 3.767637771990314901e+26 4.550219534235212748e+00
2.200000000000000112e-07 3.745325530210089852e+26 4.550154665252214237e+00
2.299999999999999949e-07 3.722969806547379909e+26 4.549429138238461512e+00
2.400000000000000315e-07 3.701184635185821722e+26 4.549388345974125336e+00
2.499999999999999887e-07 3.679525758642217630e+26 4.548682772629135229e+00
2.599999999999999988e-07 3.658244754905193728e+26 4.548666809372867270e+00
2.700000000000000090e-07 3.636920689436424820e+26 4.547988629573189279e+00
2.800000000000000191e-07 3.616133469282849983e+26 4.547996672148826747e+00
2.900000000000000292e-07 3.595306412405884952e+26 4.547364928941600049e+00
2.999999999999999864e-07 3.574710772700277917e+26 4.546722119541729334e+00
3.099999999999999966e-07 3.553879364810649166e+26 4.546674590428176899e+00
3.200000000000000067e-07 3.533927861046218306e+26 4.546075462971900016e+00
3.300000000000000168e-07 3.514308639607554036e+26 4.546119530594724623e+00
3.400000000000000270e-07 3.494636685607082772e+26 4.545544363215289430e+00
3.499999999999999842e-07 3.475191065550451397e+26 4.544978170729012668e+00
3.599999999999999943e-07 3.456228640383283318e+26 4.545057905549705346e+00
3.700000000000000044e-07 3.437207953385766113e+26 4.544515402870332288e+00
3.800000000000000146e-07 3.418403270890200144e+26 4.543981563956933201e+00
3.900000000000000247e-07 3.400229648268786603e+26 4.544096065443298471e+00
3.999999999999999819e-07 3.381834580424213826e+26 4.543583858185074931e+00
4.099999999999999920e-07 3.363635530166491032e+26 4.543083510803223035e+00
4.200000000000000022e-07 3.345904990175398286e+26 4.543247895921297186e+00
4.300000000000000123e-07 3.327388353142514717e+26 4.542659599476848165e+00
4.400000000000000224e-07 3.309780884340922777e+26 4.542188118492333615e+00
4.500000000000000326e-07 3.292361935675621370e+26 4.541726357730101249e+00
4.599999999999999898e-07 3.275543118837711050e+26 4.541934768482351892e+00
4.699999999999999999e-07 3.258490679922822652e+26 4.541496545382695871e+00
4.800000000000000630e-07 3.241609873373667894e+26 4.541051673475450023e+00
4.899999999999999672e-07 3.224915578710509369e+26 4.540629793127720859e+00
4.999999999999999774e-07 3.207718270707196753e+26 4.540123971292470806e+00
5.099999999999999875e-07 3.191628222992398635e+26 4.540381344212015335e+00
5.199999999999999976e-07 3.175604841176528302e+26 4.539994412828768588e+00
5.300000000000000078e-07 3.159596861575415452e+26 4.539610909492650670e+00
5.400000000000000179e-07 3.143753645002159320e+26 4.539240563031602171e+00
5.500000000000000281e-07 3.128073531099771781e+26 4.538875964145502984e+00
5.600000000000000382e-07 3.111888185751067254e+26 4.538416862600779034e+00
5.700000000000000483e-07 3.096775593163617094e+26 4.538737775935619112e+00
5.800000000000000585e-07 3.081571774516735099e+26 4.538402035480419983e+00
5.899999999999999627e-07 3.066675455587076388e+26 4.538079361892247476e+00
5.999999999999999728e-07 3.051776057153025523e+26 4.537765759513292529e+00
6.099999999999999830e-07 3.036387068113532094e+26 4.537361509352076716e+00
6.199999999999999931e-07 3.021787521443920398e+26 4.537062230903037729e+00
6.300000000000000033e-07 3.007327734012779626e+26 4.536778560950116557e+00
6.400000000000000134e-07 2.993015455270464614e+26 4.536500934757400572e+00
6.500000000000000235e-07 2.978218083767235255e+26 4.536131454500598181e+00
6.600000000000000337e-07 2.964339657359013900e+26 4.535871551576755145e+00
6.700000000000000438e-07 2.950445906960287825e+26 4.535620141315718890e+00
6.800000000000000539e-07 2.936686841160609538e+26 4.535377350941808494e+00
6.900000000000000641e-07 2.922447270328210913e+26 4.535041661691797010e+00
6.999999999999999683e-07 2.908954654819743891e+26 4.534815883446995599e+00
7.099999999999999785e-07 2.895595570367269565e+26 4.534595316147745692e+00
7.199999999999999886e-07 2.882508490330926257e+26 4.534386593435219659e+00
7.299999999999999987e-07 2.868795708949728298e+26 4.534083825649792843e+00
7.400000000000000089e-07 2.855820282884599908e+26 4.533893109651338627e+00
7.500000000000000190e-07 2.842957065548609590e+26 4.533708684843538173e+00
7.600000000000000291e-07 2.829621737256591456e+26 4.533429787434485547e+00
7.700000000000000393e-07 2.817000108948980157e+26 4.533261690401709565e+00
7.800000000000000494e-07 2.804495491117043618e+26 4.533101656744972452e+00
7.900000000000000595e-07 2.792253522388015161e+26 4.532950017467446635e+00
7.999999999999999638e-07 2.779396910993500685e+26 4.532702878483724440e+00
8.099999999999999739e-07 2.767236596010147143e+26 4.532566767504349947e+00
8.199999999999999841e-07 2.755201601297933242e+26 4.532433615943524785e+00
8.299999999999999942e-07 2.742689004151146199e+26 4.532209523245699145e+00
8.400000000000000043e-07 2.730642032612622160e+26 4.531429104037840716e+00
8.500000000000000145e-07 2.719065916498200188e+26 4.531324233713824867e+00
8.600000000000000246e-07 2.706884615854455037e+26 4.531122597778066030e+00
8.700000000000000347e-07 2.695374745302189779e+26 4.531032564135898610e+00
8.800000000000000449e-07 2.683981884183660144e+26 4.530942813493521015e+00
8.900000000000000550e-07 2.672119104876641484e+26 4.530763524359701755e+00
9.000000000000000652e-07 2.660916089168466129e+26 4.530695963863935027e+00
9.099999999999999694e-07 2.649600348736441892e+26 4.529966364005843182e+00
9.199999999999999795e-07 2.638188341141652082e+26 4.529809166408080401e+00
9.299999999999999897e-07 2.627295397288591320e+26 4.529754272909535473e+00
9.399999999999999998e-07 2.616483479154818116e+26 4.529715640145819400e+00
9.500000000000000100e-07 2.605223494301381801e+26 4.529579318192280546e+00
9.600000000000001260e-07 2.594393548094594634e+26 4.528884301479660479e+00
9.700000000000000302e-07 2.583340261585773234e+26 4.528750868330642554e+00
9.799999999999999345e-07 2.573044208364274707e+26 4.528740978547372009e+00
9.900000000000000505e-07 2.562695768224835375e+26 4.528737267460789084e+00
9.999999999999999547e-07 2.551909648168836717e+26 4.528630758295477676e+00
1.010000000000000071e-06 2.541545544611862099e+26 4.527961367899266953e+00
1.019999999999999975e-06 2.530935893329660592e+26 4.527872331862934807e+00
1.030000000000000091e-06 2.520938892710341661e+26 4.527895616588308414e+00
1.039999999999999995e-06 2.510979444389351459e+26 4.527236850487238229e+00
1.050000000000000111e-06 2.500630474554928062e+26 4.527171367801237523e+00
1.060000000000000016e-06 2.490884650751421658e+26 4.527214437177457640e+00
1.069999999999999920e-06 2.480719555029441830e+26 4.527143962140796951e+00
1.080000000000000036e-06 2.470939014540839899e+26 4.526526825677603227e+00
1.089999999999999940e-06 2.461435799089694081e+26 4.526589327577030808e+00
1.100000000000000056e-06 2.451516910244722159e+26 4.526537087360051892e+00
1.109999999999999960e-06 2.442114027516973730e+26 4.525935574298104669e+00
1.120000000000000076e-06 2.432345016939316645e+26 4.525910036127126723e+00
1.129999999999999981e-06 2.423163103791679691e+26 4.525986801410249782e+00
1.140000000000000097e-06 2.413353581142998044e+26 4.525296422261523510e+00
1.150000000000000001e-06 2.404316338468694810e+26 4.525395920467500943e+00
1.160000000000000117e-06 2.395358088475455937e+26 4.525490553093033164e+00
1.170000000000000021e-06 2.385914683096734357e+26 4.524818906090661841e+00
1.179999999999999925e-06 2.377105840452331724e+26 4.524923671996742947e+00
1.190000000000000041e-06 2.367864387780621606e+26 4.524942314734071935e+00
1.199999999999999946e-06 2.358999222846918709e+26 4.524388686850842056e+00
1.210000000000000062e-06 2.349912358092127240e+26 4.524409021695192656e+00
1.219999999999999966e-06 2.341374975733042551e+26 4.524546705567631832e+00
1.230000000000000082e-06 2.332377953806276663e+26 4.523898523672084337e+00
1.239999999999999986e-06 2.323972347833013472e+26 4.524052871647735508e+00
1.250000000000000102e-06 2.314973850069718648e+26 4.523420076453446903e+00
1.260000000000000007e-06 2.306710835228136883e+26 4.523574436589536063e+00
1.270000000000000123e-06 2.298032616974836708e+26 4.523633270469717971e+00
1.280000000000000027e-06 2.289715839306662542e+26 4.523117057032469468e+00
1.289999999999999931e-06 2.281303853883692000e+26 4.523187652327437469e+00
1.300000000000000047e-06 2.273115499803433054e+26 4.522677606051293431e+00
1.309999999999999951e-06 2.264698301063549965e+26 4.522761944316624039e+00
1.320000000000000067e-06 2.256806202240137635e+26 4.522960312271351313e+00
1.329999999999999972e-06 2.248345048070753890e+26 4.522356889016251102e+00
1.340000000000000088e-06 2.240574662759758975e+26 4.522566081064336885e+00
1.349999999999999992e-06 2.232371620638386146e+26 4.521973252498724172e+00
1.360000000000000108e-06 2.224720205868966417e+26 4.522193209993734975e+00
1.370000000000000012e-06 2.216507125644589438e+26 4.521605459450378284e+00
1.380000000000000128e-06 2.208976145580653262e+26 4.521834136981894403e+00
1.390000000000000032e-06 2.200879420091301772e+26 4.521261893873297133e+00
1.399999999999999937e-06 2.193462796221574389e+26 4.521501110314622096e+00
1.410000000000000053e-06 2.185615531643792709e+26 4.520939467762421060e+00
1.419999999999999957e-06 2.178310703489762164e+26 4.521189087632894399e+00
1.430000000000000073e-06 2.170620722197553669e+26 4.521319989493718161e+00
1.439999999999999977e-06 2.163251921384507747e+26 4.520896037386131994e+00
1.450000000000000093e-06 2.155677636379829024e+26 4.521030595789289563e+00
1.459999999999999997e-06 2.148413509973960839e+26 4.520622319518605714e+00
1.470000000000000113e-06 2.141079144675233553e+26 4.520767128813961477e+00
1.480000000000000018e-06 2.133934575993424502e+26 4.520341702381824867e+00
1.490000000000000134e-06 2.126562907584799226e+26 4.520521367828540527e+00
1.500000000000000038e-06 2.119522198700428992e+26 4.520104692299320881e+00
1.509999999999999942e-06 2.112255339176115513e+26 4.520293590989022725e+00
1.520000000000000058e-06 2.104885258415569368e+26 4.519778217487469441e+00
1.529999999999999963e-06 2.098117153172919922e+26 4.519392483958807993e+00
1.540000000000000079e-06 2.091013617115860571e+26 4.519577143681371645e+00
1.549999999999999983e-06 2.084214384490430814e+26 4.519199164415874215e+00
1.560000000000000099e-06 2.077214255260899339e+26 4.519385888527086337e+00
1.570000000000000003e-06 2.070521527223649755e+26 4.518994115599942241e+00
1.580000000000000119e-06 2.063605841921516894e+26 4.519218400463500984e+00
1.590000000000000023e-06 2.056716147411509987e+26 4.518732314297801977e+00
1.599999999999999928e-06 2.050320844223308314e+26 4.519061942398245435e+00
1.610000000000000044e-06 2.043395115063543910e+26 4.518590565026108230e+00
1.619999999999999948e-06 2.037101164453360280e+26 4.518905940921628783e+00
1.630000000000000064e-06 2.030264368973557619e+26 4.518459153065101930e+00
1.639999999999999968e-06 2.023898277421196592e+26 4.518096327348956720e+00
1.650000000000000084e-06 2.017440547690317970e+26 4.518352775571906399e+00
1.659999999999999988e-06 2.010753193959108704e+26 4.517895194969447026e+00
1.670000000000000104e-06 2.004681950310149155e+26 4.518231888147743014e+00
1.680000000000000009e-06 1.998075560973668378e+26 4.517806643298596825e+00
1.690000000000000125e-06 1.991926838053611429e+26 4.517471901021925973e+00
1.700000000000000029e-06 1.985568923844655897e+26 4.517742426029904834e+00
1.709999999999999933e-06 1.979232148267087205e+26 4.517305719786642193e+00
1.720000000000000049e-06 1.973373095922980490e+26 4.517663043062942307e+00
1.729999999999999953e-06 1.966986167712551326e+26 4.517258329906425729e+00
1.740000000000000069e-06 1.961047774951812417e+26 4.516943401384531320e+00
1.749999999999999974e-06 1.954911909967523282e+26 4.517209150482529800e+00
1.760000000000000090e-06 1.948651802650173023e+26 4.516816123178886144e+00
1.769999999999999994e-06 1.942964228823964124e+26 4.516504614118612260e+00
1.780000000000000110e-06 1.936950888445947389e+26 4.516781267046845905e+00
1.790000000000000014e-06 1.931202466409560360e+26 4.516514150740909450e+00
1.800000000000000130e-06 1.925114275121002536e+26 4.516105804295273529e+00
1.810000000000000035e-06 1.919220179565294992e+26 4.516393079644886122e+00
1.819999999999999939e-06 1.913716195662112316e+26 4.516128828186245059e+00
1.830000000000000055e-06 1.907899293151395185e+26 4.516419549478719375e+00
1.839999999999999959e-06 1.902354411709749677e+26 4.516134651638251007e+00
1.850000000000000075e-06 1.896451905755935468e+26 4.515770157632513992e+00
1.859999999999999979e-06 1.890745333543669724e+26 4.516083741377292959e+00
1.870000000000000095e-06 1.885311259248220117e+26 4.515809008396317381e+00
1.880000000000000000e-06 1.879646470583823023e+26 4.515459202543454786e+00
1.890000000000000116e-06 1.873904617963678788e+26 4.515081296969105651e+00
1.900000000000000020e-06 1.868728772076773637e+26 4.515506559341252668e+00
1.909999999999999924e-06 1.863050487416656188e+26 4.515167325444742197e+00
1.920000000000000252e-06 1.857795140023466160e+26 4.514906165674158700e+00
1.930000000000000156e-06 1.852343457224660892e+26 4.515245273111653468e+00
1.940000000000000060e-06 1.846906259054591237e+26 4.514888775956102940e+00
1.949999999999999965e-06 1.841745390369103542e+26 4.514666732915972425e+00
1.959999999999999869e-06 1.836402486456425530e+26 4.515007867024928068e+00
1.970000000000000197e-06 1.830947241583811314e+26 4.514661961858296380e+00
1.980000000000000101e-06 1.825887534828603790e+26 4.514450466351522806e+00
1.990000000000000005e-06 1.820623793155400924e+26 4.514111590499438442e+00
1.999999999999999909e-06 1.815416986282309794e+26 4.514466616911247066e+00
2.010000000000000237e-06 1.810464180626328202e+26 4.514239626499613856e+00
2.020000000000000142e-06 1.805165270261691347e+26 4.513945780551283704e+00
2.030000000000000046e-06 1.799912273595994448e+26 4.513619741233455329e+00
2.039999999999999950e-06 1.795198950107238628e+26 4.514093158145697338e+00
2.049999999999999854e-06 1.790132247579766945e+26 4.513772665517889138e+00
2.060000000000000182e-06 1.784966686584853417e+26 4.513481677199551179e+00
2.070000000000000086e-06 1.780201520079132078e+26 4.513272586173377121e+00
2.079999999999999991e-06 1.775250052450501487e+26 4.513652389610753879e+00
2.089999999999999895e-06 1.770187468031611703e+26 4.513339507410157658e+00
2.100000000000000223e-06 1.765624723211017621e+26 4.513168722929477461e+00
2.110000000000000127e-06 1.760622900209653923e+26 4.512865458811694097e+00
2.120000000000000031e-06 1.755792736203017294e+26 4.513256720710734804e+00
2.129999999999999935e-06 1.751201385439635796e+26 4.513070056115807027e+00
2.139999999999999840e-06 1.746280628629903725e+26 4.512806318818731732e+00
2.150000000000000167e-06 1.741520057729307246e+26 4.512513986654237641e+00
2.160000000000000072e-06 1.737017869735103081e+26 4.512329523031636924e+00
2.169999999999999976e-06 1.732333352977218868e+26 4.512735697368359666e+00
2.179999999999999880e-06 1.727539052617442115e+26 4.512448697632661876e+00
2.190000000000000208e-06 1.723111651185338624e+26 4.512304901293791026e+00
2.200000000000000112e-06 1.718374303799311294e+26 4.512028227115894019e+00
2.210000000000000016e-06 1.713923805270418797e+26 4.512446602894861769e+00
2.219999999999999921e-06 1.709587258276957358e+26 4.512276121449745325e+00
2.230000000000000248e-06 1.704934041154352914e+26 4.512008571963678882e+00
2.240000000000000153e-06 1.700300052912914884e+26 4.511776718319593371e+00
2.250000000000000057e-06 1.695702765476269127e+26 4.511515476249906342e+00
2.259999999999999961e-06 1.691728690402353907e+26 4.512053255062639323e+00
2.269999999999999866e-06 1.687184908655991943e+26 4.511794014311111489e+00
2.280000000000000193e-06 1.682668035396235349e+26 4.511541308326065369e+00
2.290000000000000098e-06 1.678506050484186962e+26 4.511427901422887743e+00
2.300000000000000002e-06 1.674037898941138690e+26 4.511192122178974806e+00
2.309999999999999906e-06 1.669718988141749129e+26 4.510946758517951238e+00
2.320000000000000234e-06 1.665774298623350095e+26 4.511497497065780848e+00
2.330000000000000138e-06 1.661385922747066430e+26 4.511257947691925452e+00
2.340000000000000042e-06 1.657022988441985591e+26 4.511020655861684325e+00
2.349999999999999947e-06 1.652676472878836348e+26 4.510819557225430820e+00
2.359999999999999851e-06 1.648693913322064582e+26 4.510689842441395925e+00
2.370000000000000179e-06 1.644523720506615811e+26 4.510458563301533275e+00
2.380000000000000083e-06 1.640390898300815722e+26 4.510920749760516379e+00
2.389999999999999987e-06 1.636477802289566098e+26 4.510797294584572015e+00
2.399999999999999891e-06 1.632260405144968889e+26 4.510573880357359400e+00
2.410000000000000219e-06 1.628058426493707363e+26 4.510387292332417530e+00
2.420000000000000123e-06 1.624007473655725444e+26 4.510167703178335152e+00
2.430000000000000028e-06 1.620185592918360697e+26 4.510053672400175628e+00
2.439999999999999932e-06 1.616192467609589821e+26 4.510530890307924423e+00
2.450000000000000260e-06 1.612092498985810884e+26 4.510320100844130486e+00
2.460000000000000164e-06 1.608015890769414773e+26 4.510111920643998573e+00
2.470000000000000068e-06 1.604400925335191392e+26 4.510006622615397198e+00
2.479999999999999972e-06 1.600360877611654866e+26 4.509839132084168867e+00
2.489999999999999877e-06 1.596352235840371905e+26 4.509639469074121720e+00
2.500000000000000205e-06 1.592684044088736357e+26 4.509543608444549712e+00
2.510000000000000109e-06 1.588847456590369263e+26 4.510040630044454879e+00
2.520000000000000013e-06 1.585022592487390870e+26 4.509847914361430732e+00
2.529999999999999917e-06 1.581101994848088726e+26 4.509659250900405425e+00
2.540000000000000245e-06 1.577517614802244491e+26 4.509573701940023049e+00
2.550000000000000149e-06 1.573639543113819842e+26 4.509390214904033911e+00
2.560000000000000054e-06 1.569782822756269450e+26 4.509209157419860503e+00
2.569999999999999958e-06 1.566055926193876777e+26 4.509065221337893448e+00
2.579999999999999862e-06 1.562552201015917016e+26 4.508985228143090218e+00
2.590000000000000190e-06 1.558757077070870643e+26 4.508811222178913170e+00
2.600000000000000094e-06 1.555107424005474768e+26 4.509334819266167749e+00
2.609999999999999998e-06 1.551352715290499179e+26 4.509164923638750544e+00
2.619999999999999903e-06 1.548042593290475275e+26 4.509094756862065623e+00
2.630000000000000230e-06 1.544326834633943204e+26 4.508928657070990553e+00
2.640000000000000135e-06 1.540630784143635599e+26 4.508764386714616101e+00
2.650000000000000039e-06 1.536954251690107018e+26 4.508601934895992258e+00
