# z (um)	 Electron density (m^-3)
0.000000000000000000e+00 1.625506737309466662e+25 3.189752605319600143e+00
1.000000000000000021e-08 1.625008053675507124e+25 3.189781800730858041e+00
2.000000000000000042e-08 1.624625397025735545e+25 3.189808697136776505e+00
3.000000000000000394e-08 1.624242941432967956e+25 3.189835514493068125e+00
4.000000000000000084e-08 1.623860690549613621e+25 3.189862252825265365e+00
4.999999999999999774e-08 1.623478650181396946e+25 3.189888912142619493e+00
6.000000000000000787e-08 1.623133852440153980e+25 3.189784318908136740e+00
7.000000000000000477e-08 1.622752078620403288e+25 3.189811186810431742e+00
8.000000000000000167e-08 1.622254922806877597e+25 3.189840301534299982e+00
8.999999999999999857e-08 1.621873606276793244e+25 3.189867053443090406e+00
9.999999999999999547e-08 1.621492499695683102e+25 3.189893726864464707e+00
1.100000000000000056e-07 1.621149986981206591e+25 3.189789084677767228e+00
1.200000000000000157e-07 1.620769150578121184e+25 3.189815967379376893e+00
1.299999999999999994e-07 1.620388529328839906e+25 3.189842771362235041e+00
1.400000000000000095e-07 1.619892688379782849e+25 3.189871845248053006e+00
1.499999999999999932e-07 1.619512521356771749e+25 3.189898534113030149e+00
1.600000000000000033e-07 1.619132562360668060e+25 3.189925144848982264e+00
1.700000000000000135e-07 1.618789655650903342e+25 3.189820741744469057e+00
1.799999999999999971e-07 1.618409951396113636e+25 3.189847562128107494e+00
1.900000000000000073e-07 1.618030454075290586e+25 3.189874304033018415e+00
1.999999999999999909e-07 1.617535890686484757e+25 3.189903338484650686e+00
2.100000000000000011e-07 1.617156829556059827e+25 3.189929965699588088e+00
2.200000000000000112e-07 1.616816159691931606e+25 3.189825512903001759e+00
2.299999999999999949e-07 1.616437338080720189e+25 3.189852350134772863e+00
2.400000000000000315e-07 1.616058715941491804e+25 3.189879109244351696e+00
2.499999999999999887e-07 1.615680294998281756e+25 3.189905790274564890e+00
2.599999999999999988e-07 1.615186965770368972e+25 3.189934786534950550e+00
2.700000000000000090e-07 1.614808976616589740e+25 3.189961353759767526e+00
2.800000000000000191e-07 1.614467847591101690e+25 3.189857139834607391e+00
2.900000000000000292e-07 1.614090096087221251e+25 3.189883917867084140e+00
2.999999999999999864e-07 1.613712547005037373e+25 3.189910618263182229e+00
3.099999999999999966e-07 1.613335203638657044e+25 3.189937241059205064e+00
3.200000000000000067e-07 1.612958068993385488e+25 3.189963786286914793e+00
3.300000000000000168e-07 1.612504239538917784e+25 3.189861938273289343e+00
3.400000000000000270e-07 1.612127396368062075e+25 3.189888736163266625e+00
3.499999999999999842e-07 1.611750757794297206e+25 3.189915456961758267e+00
3.599999999999999943e-07 1.611374326545616751e+25 3.189942100705557948e+00
3.700000000000000044e-07 1.610998104933338680e+25 3.189968667414812220e+00
3.800000000000000146e-07 1.610622096881257495e+25 3.189995157098078682e+00
3.900000000000000247e-07 1.610168030756702103e+25 3.189893571104922998e+00
3.999999999999999819e-07 1.609792312304008017e+25 3.189920314230761278e+00
4.099999999999999920e-07 1.609416796389142973e+25 3.189946980729782666e+00
4.200000000000000022e-07 1.609041484193309949e+25 3.189973570619730747e+00
4.300000000000000123e-07 1.608666376608507297e+25 3.190000083908605788e+00
4.400000000000000224e-07 1.608329297404548761e+25 3.189895978594770476e+00
4.500000000000000326e-07 1.607839857306590435e+25 3.189925196752656955e+00
4.599999999999999898e-07 1.607465232318432008e+25 3.189951887381371698e+00
4.699999999999999999e-07 1.607090802052713627e+25 3.189978501933756760e+00
4.800000000000000630e-07 1.606716567777548224e+25 3.190005040433864458e+00
4.899999999999999672e-07 1.606342530825244104e+25 3.190031502890406490e+00
4.999999999999999774e-07 1.606004999841980451e+25 3.189927639183490538e+00
5.099999999999999875e-07 1.605516777836833704e+25 3.189956828948233625e+00
5.199999999999999976e-07 1.605143206575436710e+25 3.189983470198741511e+00
5.300000000000000078e-07 1.604769827278090275e+25 3.190010035878017902e+00
5.400000000000000179e-07 1.604396642821984830e+25 3.190036525983370286e+00
5.500000000000000281e-07 1.604059951862089796e+25 3.189932615843332542e+00
5.600000000000000382e-07 1.603688362111382761e+25 3.189959319283767858e+00
5.700000000000000483e-07 1.603315624987311517e+25 3.189985946973489916e+00
5.800000000000000585e-07 1.602828856976409201e+25 3.190015076565489327e+00
5.899999999999999627e-07 1.602456554217373044e+25 3.190041595116816620e+00
5.999999999999999728e-07 1.602084450677559374e+25 3.190068038533943273e+00
6.099999999999999830e-07 1.601748684304500599e+25 3.189964370980092667e+00
6.199999999999999931e-07 1.601376832761375506e+25 3.189991028369239867e+00
6.300000000000000033e-07 1.601005186989560616e+25 3.190017610359312528e+00
6.400000000000000134e-07 1.600519671325045675e+25 3.190046715789347509e+00
6.500000000000000235e-07 1.600148462828614524e+25 3.190073189387757857e+00
6.600000000000000337e-07 1.599813578241773525e+25 3.189969475143684008e+00
6.700000000000000438e-07 1.599443963106813734e+25 3.189996163330058199e+00
6.800000000000000539e-07 1.599073202389656024e+25 3.190022776669172888e+00
6.900000000000000641e-07 1.598702644084421248e+25 3.190049315225804705e+00
6.999999999999999683e-07 1.598218369971612145e+25 3.190078398868817722e+00
7.099999999999999785e-07 1.597848239415092002e+25 3.190104830424652427e+00
7.199999999999999886e-07 1.597514268523670392e+25 3.190001360431528266e+00
7.299999999999999987e-07 1.597144372116554057e+25 3.190028008001318582e+00
7.400000000000000089e-07 1.596774670814537022e+25 3.190054581559436553e+00
7.500000000000000190e-07 1.596405165768064072e+25 3.190081081224573456e+00
7.600000000000000291e-07 1.595922097261837268e+25 3.190110147673138830e+00
7.700000000000000393e-07 1.595588966490675948e+25 3.190006634492453585e+00
7.800000000000000494e-07 1.595221258838216443e+25 3.190033319487504571e+00
7.900000000000000595e-07 1.594852398530592273e+25 3.190059931294309870e+00
7.999999999999999638e-07 1.594483731852585503e+25 3.190086469942170044e+00
8.099999999999999739e-07 1.594115261212412001e+25 3.190112935461296484e+00
8.199999999999999841e-07 1.593746988827029301e+25 3.190139327856226892e+00
8.299999999999999942e-07 1.593301146446427890e+25 3.190038724911651524e+00
8.400000000000000043e-07 1.592933144383061924e+25 3.190065376765917282e+00
8.500000000000000145e-07 1.592565335139364131e+25 3.190091955790676170e+00
8.600000000000000246e-07 1.592197721356777625e+25 3.190118461953758811e+00
8.700000000000000347e-07 1.591830305479029489e+25 3.190144895206879383e+00
8.800000000000000449e-07 1.591595855713584524e+25 3.189984417802669725e+00
8.900000000000000550e-07 1.591019644234559691e+25 3.190070921833493056e+00
9.000000000000000652e-07 1.590652702952458699e+25 3.190097541601333742e+00
9.099999999999999694e-07 1.590285955237181399e+25 3.190124088671173919e+00
9.199999999999999795e-07 1.589919403103607114e+25 3.190150563068586465e+00
9.299999999999999897e-07 1.589553048305708361e+25 3.190176964832514006e+00
9.399999999999999998e-07 1.589222523535737340e+25 3.190073873232565749e+00
9.500000000000000100e-07 1.588743164081858834e+25 3.190103228950813108e+00
9.600000000000001260e-07 1.588377276247237954e+25 3.190129818435212261e+00
9.700000000000000302e-07 1.588011578843729166e+25 3.190156336122867309e+00
9.799999999999999345e-07 1.587646073502586818e+25 3.190182782161255393e+00
9.900000000000000505e-07 1.587280761728541536e+25 3.190209156688688541e+00
9.999999999999999547e-07 1.586952456450358152e+25 3.190106316675594744e+00
1.010000000000000071e-06 1.586474289677350996e+25 3.190135667455435531e+00
1.019999999999999975e-06 1.586109434973359423e+25 3.190162233157521232e+00
1.030000000000000091e-06 1.585744767577118091e+25 3.190188728268014362e+00
1.039999999999999995e-06 1.585380289545382041e+25 3.190215152877212024e+00
1.050000000000000111e-06 1.585051472598671996e+25 3.190112277065865420e+00
1.060000000000000016e-06 1.584687229455783659e+25 3.190138923410295035e+00
1.069999999999999920e-06 1.584323178447132027e+25 3.190165499215350753e+00
1.080000000000000036e-06 1.583846416403653670e+25 3.190194822249023954e+00
1.089999999999999940e-06 1.583482779209253839e+25 3.190221299464389926e+00
1.100000000000000056e-06 1.583119330210165468e+25 3.190247706792064708e+00
1.109999999999999960e-06 1.582791387232181174e+25 3.190145088819142938e+00
1.120000000000000076e-06 1.582429505338403659e+25 3.190171718575522508e+00
1.129999999999999981e-06 1.582066481960004408e+25 3.190198278147122313e+00
1.140000000000000097e-06 1.581590902090837948e+25 3.190227604950293561e+00
1.150000000000000001e-06 1.581228291545635356e+25 3.190254066471183592e+00
1.160000000000000117e-06 1.580901182056931101e+25 3.190151413592221985e+00
1.170000000000000021e-06 1.580538800181318622e+25 3.190178098072254720e+00
1.179999999999999925e-06 1.580176607525090493e+25 3.190204712836724799e+00
1.190000000000000041e-06 1.579814608029831831e+25 3.190231258005452375e+00
1.199999999999999946e-06 1.579340206187276885e+25 3.190260590680306318e+00
1.210000000000000062e-06 1.578978618327136333e+25 3.190287039349636089e+00
1.219999999999999966e-06 1.578652378665564674e+25 3.190184646094181620e+00
1.230000000000000082e-06 1.578292349108072374e+25 3.190211319438645443e+00
1.239999999999999986e-06 1.577931178231285158e+25 3.190237924178163542e+00
1.250000000000000102e-06 1.577570199729507937e+25 3.190264460453651640e+00
1.260000000000000007e-06 1.577209414935163690e+25 3.190290928429182937e+00
1.270000000000000123e-06 1.576867858102270923e+25 3.190133529301957260e+00
1.280000000000000027e-06 1.576411052343342926e+25 3.190218117079213656e+00
1.289999999999999931e-06 1.576050714144596312e+25 3.190244785574071873e+00
1.300000000000000047e-06 1.575690562565936377e+25 3.190271386598521275e+00
1.309999999999999951e-06 1.575330598976590533e+25 3.190297920266364606e+00
1.320000000000000067e-06 1.574970824561968037e+25 3.190324386669936452e+00
1.329999999999999972e-06 1.574533992412298121e+25 3.190225126196887917e+00
1.340000000000000088e-06 1.574175799415808228e+25 3.190251862075364819e+00
1.349999999999999992e-06 1.573816459154623886e+25 3.190278531257323191e+00
1.360000000000000108e-06 1.573457302544636736e+25 3.190305133769883561e+00
1.370000000000000012e-06 1.573098331637470621e+25 3.190331669651672808e+00
1.380000000000000128e-06 1.572870639413323309e+25 3.190171448736917270e+00
1.390000000000000032e-06 1.572303712977970879e+25 3.190259167848018329e+00
1.399999999999999937e-06 1.571945181384274610e+25 3.190285907634876850e+00
1.410000000000000053e-06 1.571586831908046148e+25 3.190312581269074244e+00
1.419999999999999957e-06 1.571228667226729879e+25 3.190339188823728023e+00
1.430000000000000073e-06 1.570870689909902302e+25 3.190365730375802844e+00
1.439999999999999977e-06 1.570547756323345812e+25 3.190263787567642506e+00
1.450000000000000093e-06 1.570191337230418691e+25 3.190290558473342752e+00
1.459999999999999997e-06 1.569721871837323158e+25 3.190320272785274636e+00
1.470000000000000113e-06 1.569364534280527217e+25 3.190346954591084305e+00
1.480000000000000018e-06 1.569007381818246001e+25 3.190373571503815509e+00
1.490000000000000134e-06 1.568781149503855693e+25 3.190213455512181717e+00
1.500000000000000038e-06 1.568328345927508891e+25 3.190298456636833535e+00
1.509999999999999942e-06 1.567971611352301614e+25 3.190325240676243457e+00
1.520000000000000058e-06 1.567503303421790991e+25 3.190354988129360692e+00
1.529999999999999963e-06 1.567146967222330972e+25 3.190381685776307652e+00
1.540000000000000079e-06 1.566790811895988378e+25 3.190408319853542896e+00
1.549999999999999983e-06 1.566565354436271058e+25 3.190248264359721198e+00
1.560000000000000099e-06 1.566114933416876574e+25 3.190333505159562488e+00
1.570000000000000003e-06 1.565759181147018416e+25 3.190360309738532241e+00
1.580000000000000119e-06 1.565292005076162365e+25 3.190390097238223088e+00
1.590000000000000023e-06 1.564936644925607179e+25 3.190416817382144110e+00
1.599999999999999928e-06 1.564581462216929495e+25 3.190443474823511760e+00
1.610000000000000044e-06 1.564261021526483635e+25 3.190342076983900821e+00
1.619999999999999948e-06 1.563906053281445129e+25 3.190368969635649421e+00
1.630000000000000064e-06 1.563551265859004281e+25 3.190395799567513180e+00
1.639999999999999968e-06 1.563196663211144540e+25 3.190422566910274149e+00
1.650000000000000084e-06 1.562730820687479604e+25 3.190452378270622003e+00
1.659999999999999988e-06 1.562506774515371566e+25 3.190292457436899376e+00
1.670000000000000104e-06 1.562057002412124797e+25 3.190377953080568041e+00
1.680000000000000009e-06 1.561704328687559267e+25 3.190404875010240726e+00
1.690000000000000125e-06 1.561350517722205992e+25 3.190431735354677389e+00
1.700000000000000029e-06 1.560996891789640171e+25 3.190458534285379955e+00
1.709999999999999933e-06 1.560532177034724139e+25 3.190488396628170964e+00
1.720000000000000049e-06 1.560213367410293431e+25 3.190387279674723686e+00
1.729999999999999953e-06 1.559860169807627554e+25 3.190414298472882937e+00
1.740000000000000069e-06 1.559507150848106956e+25 3.190441256968834072e+00
1.749999999999999974e-06 1.559154314557689672e+25 3.190468155378042514e+00
1.760000000000000090e-06 1.558801662580704574e+25 3.190494993899330112e+00
1.769999999999999994e-06 1.558467881654294897e+25 3.190338328771167742e+00
1.780000000000000110e-06 1.558020090811343425e+25 3.190424097105996726e+00
1.790000000000000014e-06 1.557669180298942571e+25 3.190451159600336872e+00
1.800000000000000130e-06 1.557317131702919040e+25 3.190478163142400625e+00
1.810000000000000035e-06 1.556965264061026755e+25 3.190505107848120581e+00
1.819999999999999939e-06 1.556613578825543624e+25 3.190531993852510073e+00
1.830000000000000055e-06 1.556391680282764368e+25 3.190372279128764532e+00
1.839999999999999959e-06 1.555833954510011724e+25 3.190461467324186895e+00
1.850000000000000075e-06 1.555482695191292786e+25 3.190488580026427101e+00
1.859999999999999979e-06 1.555131610727507078e+25 3.190515634921155641e+00
1.870000000000000095e-06 1.554780702526490978e+25 3.190542632195980666e+00
1.880000000000000000e-06 1.554559440139104438e+25 3.190383007449170361e+00
1.890000000000000116e-06 1.554113555420970711e+25 3.190469030638344083e+00
1.900000000000000020e-06 1.553653563991212362e+25 3.190499427679904354e+00
1.909999999999999924e-06 1.553303246578714437e+25 3.190526598074767239e+00
1.920000000000000252e-06 1.552953100894555929e+25 3.190553712280233434e+00
1.930000000000000156e-06 1.552603129082010988e+25 3.190580770517577935e+00
1.940000000000000060e-06 1.552382588847359206e+25 3.190421248333755955e+00
1.949999999999999965e-06 1.551937712537356021e+25 3.190507547648627984e+00
1.959999999999999869e-06 1.551477489656500625e+25 3.190538027884429084e+00
1.970000000000000197e-06 1.551128106654224807e+25 3.190565265529861527e+00
1.980000000000000101e-06 1.550778896833607199e+25 3.190592448462416186e+00
1.990000000000000005e-06 1.550429862917644397e+25 3.190619576820084458e+00
1.999999999999999909e-06 1.550210051073585401e+25 3.190460165614745325e+00
2.010000000000000237e-06 1.549767500339028182e+25 3.190546748220260298e+00
2.020000000000000142e-06 1.549418863023073226e+25 3.190574072552822660e+00
2.030000000000000046e-06 1.548959950194927444e+25 3.190604631187418327e+00
2.039999999999999950e-06 1.548611701230130141e+25 3.190631889434464963e+00
2.049999999999999854e-06 1.548392538408999049e+25 3.190472585852424992e+00
2.060000000000000182e-06 1.547949594722330526e+25 3.190559213240080627e+00
2.070000000000000086e-06 1.547601733440954457e+25 3.190586670517955081e+00
2.079999999999999991e-06 1.547254048754073661e+25 3.190614074753084672e+00
2.089999999999999895e-06 1.546796232583712451e+25 3.190644731985460059e+00
2.100000000000000223e-06 1.546448927039804911e+25 3.190672073393431063e+00
2.110000000000000127e-06 1.546230491651856119e+25 3.190512893661919147e+00
2.120000000000000031e-06 1.545789862138280727e+25 3.190599816198397942e+00
2.129999999999999935e-06 1.545442926592117675e+25 3.190627362164502934e+00
2.139999999999999840e-06 1.545096164297954090e+25 3.190654857162110947e+00
2.150000000000000167e-06 1.544639413224946512e+25 3.190685624245953811e+00
2.160000000000000072e-06 1.544421588046900594e+25 3.190526567421566817e+00
2.169999999999999976e-06 1.543980527420033047e+25 3.190613549393554127e+00
2.179999999999999880e-06 1.543634326817160813e+25 3.190641245629958433e+00
2.190000000000000208e-06 1.543288294368310256e+25 3.190668892746711283e+00
2.200000000000000112e-06 1.542942434302236811e+25 3.190696491027841919e+00
2.210000000000000016e-06 1.542596748592209731e+25 3.190724040726345745e+00
2.219999999999999921e-06 1.542269612324899351e+25 3.190568468376238531e+00
2.230000000000000248e-06 1.541829539002504028e+25 3.190655765074799532e+00
2.240000000000000153e-06 1.541485558553558218e+25 3.190683571308924105e+00
2.250000000000000057e-06 1.541140443527583996e+25 3.190711330000487678e+00
2.259999999999999961e-06 1.540795502134629748e+25 3.190739041286965616e+00
2.269999999999999866e-06 1.540450736267516981e+25 3.190766705327795272e+00
2.280000000000000193e-06 1.540124459331612082e+25 3.190611303048983771e+00
2.290000000000000098e-06 1.539685382672368603e+25 3.190698921615678252e+00
2.300000000000000002e-06 1.539341017455237669e+25 3.190726845771218567e+00
2.309999999999999906e-06 1.538996823298099848e+25 3.190754723646041402e+00
2.320000000000000234e-06 1.538652801863547718e+25 3.190782555492772676e+00
2.330000000000000138e-06 1.538436980458257518e+25 3.190623903537222361e+00
2.340000000000000042e-06 1.537889062121009775e+25 3.190714968831358522e+00
2.349999999999999947e-06 1.537546745017642632e+25 3.190743064516009309e+00
2.359999999999999851e-06 1.537203291439760162e+25 3.190771115811377623e+00
2.370000000000000179e-06 1.536860005952866214e+25 3.190799123099064438e+00
2.380000000000000083e-06 1.536516889988964731e+25 3.190827086797159762e+00
2.389999999999999987e-06 1.536301763685784418e+25 3.190668606405958840e+00
2.399999999999999891e-06 1.535864504504384315e+25 3.190756605085316000e+00
2.410000000000000219e-06 1.535412250618810779e+25 3.190788262923220930e+00
2.420000000000000123e-06 1.535069697341501336e+25 3.190816456309979454e+00
2.430000000000000028e-06 1.534727307277828654e+25 3.190844608566320684e+00
2.439999999999999932e-06 1.534385081895165302e+25 3.190872720085282221e+00
2.450000000000000260e-06 1.534170635150550678e+25 3.190714427066298153e+00
2.460000000000000164e-06 1.533735630169847328e+25 3.190802780780134906e+00
2.470000000000000068e-06 1.533284401182613440e+25 3.190834610442373709e+00
2.479999999999999972e-06 1.532942724292848814e+25 3.190862961911593576e+00
2.489999999999999877e-06 1.532601208512905307e+25 3.190891274500646801e+00
2.500000000000000205e-06 1.532387339485157712e+25 3.190733158683794812e+00
2.510000000000000109e-06 1.531951881214374312e+25 3.190821621971013489e+00
2.520000000000000013e-06 1.531610718379076366e+25 3.190850176499132385e+00
2.529999999999999917e-06 1.531269724355316639e+25 3.190878692826233820e+00
2.540000000000000245e-06 1.530819713367056166e+25 3.190910709987971661e+00
2.550000000000000149e-06 1.530479081425290575e+25 3.190939193146653974e+00
2.560000000000000054e-06 1.530265891464947376e+25 3.190781285627231512e+00
2.569999999999999958e-06 1.529832687144507515e+25 3.190870122752869520e+00
2.579999999999999862e-06 1.529492409659712685e+25 3.190898853080192943e+00
2.590000000000000190e-06 1.529152300663471958e+25 3.190927547154464250e+00
2.600000000000000094e-06 1.528703318743172170e+25 3.190959759963754472e+00
2.609999999999999998e-06 1.528490720146877918e+25 3.190802045073737769e+00
2.619999999999999903e-06 1.528151057784177210e+25 3.190830737500014447e+00
2.630000000000000230e-06 1.527717511630586433e+25 3.190919960165961022e+00
2.640000000000000135e-06 1.527378111141995778e+25 3.190948879831854157e+00
2.650000000000000039e-06 1.527038876243525242e+25 3.190977766049716280e+00
