# z (um)	 Electron density (m^-3)
0.000000000000000000e+00 2.170904754509624860e+27 3.152433575628511786e+00
1.000000000000000021e-08 2.094115924554658476e+27 3.150863957309000263e+00
2.000000000000000042e-08 2.023609324426293123e+27 3.149051873826754555e+00
3.000000000000000394e-08 1.958921749725491049e+27 3.147304643693303650e+00
4.000000000000000084e-08 1.898501183798904096e+27 3.145507758369026963e+00
4.999999999999999774e-08 1.842541706466247169e+27 3.143665082668290367e+00
6.000000000000000787e-08 1.790622917118243863e+27 3.141979503841381138e+00
7.000000000000000477e-08 1.742109685653697646e+27 3.140042335998423528e+00
8.000000000000000167e-08 1.696462198790132876e+27 3.138287081481091700e+00
8.999999999999999857e-08 1.653482683228882323e+27 3.136323109139128373e+00
9.999999999999999547e-08 1.613749160904036377e+27 3.134552352409433862e+00
1.100000000000000056e-07 1.575431609139271304e+27 3.132988062953830255e+00
1.200000000000000157e-07 1.539756579125277015e+27 3.131178030485524122e+00
1.299999999999999994e-07 1.505626755122698692e+27 3.129577849897671182e+00
1.400000000000000095e-07 1.473396573811357679e+27 3.128010470828714418e+00
1.499999999999999932e-07 1.442951493079221409e+27 3.126407817388380472e+00
1.600000000000000033e-07 1.413705943435939003e+27 3.124838282992459693e+00
1.700000000000000135e-07 1.385787935337882604e+27 3.123271292511979880e+00
1.799999999999999971e-07 1.359202232585018891e+27 3.121689963627727771e+00
1.900000000000000073e-07 1.333667087476852213e+27 3.120554700281006344e+00
1.999999999999999909e-07 1.309174862176260531e+27 3.119009464519386210e+00
2.100000000000000011e-07 1.285267934943055671e+27 3.117678271641217247e+00
2.200000000000000112e-07 1.260476779544465596e+27 3.116104188781929629e+00
2.299999999999999949e-07 1.238253167640800428e+27 3.115017390017286392e+00
2.400000000000000315e-07 1.218951767474293958e+27 3.113470698968330730e+00
2.499999999999999887e-07 1.200319303904966969e+27 3.112447854417368820e+00
2.599999999999999988e-07 1.182502392589882593e+27 3.111317296365923468e+00
2.700000000000000090e-07 1.165065167546472580e+27 3.110066509394818546e+00
2.800000000000000191e-07 1.148487430409466601e+27 3.108993485087154784e+00
2.900000000000000292e-07 1.132238924427766884e+27 3.107677565927069452e+00
2.999999999999999864e-07 1.116766254845217703e+27 3.106659698573008388e+00
3.099999999999999966e-07 1.101638120410408569e+27 3.105367800105104603e+00
3.200000000000000067e-07 1.086890585974085241e+27 3.104407226290760491e+00
3.300000000000000168e-07 1.072877849552135724e+27 3.103341423080840489e+00
3.400000000000000270e-07 1.059040840589012051e+27 3.102300930844128057e+00
3.499999999999999842e-07 1.045875921458939008e+27 3.101281861927616124e+00
3.599999999999999943e-07 1.032852301980258366e+27 3.100287912078129260e+00
3.700000000000000044e-07 1.020222201278821499e+27 3.099297273671123509e+00
3.800000000000000146e-07 1.008184090888869068e+27 3.098347402259549188e+00
3.900000000000000247e-07 9.961589955806593346e+26 3.097598877535364892e+00
3.999999999999999819e-07 9.844660123939913090e+26 3.096871857042586829e+00
4.099999999999999920e-07 9.733269617913172223e+26 3.095647243004572946e+00
4.200000000000000022e-07 9.624855725120979539e+26 3.094959543802787927e+00
4.300000000000000123e-07 9.517882486027198537e+26 3.093952319173391086e+00
4.400000000000000224e-07 9.411997391112711047e+26 3.093483165959792114e+00
4.500000000000000326e-07 9.311073292693966753e+26 3.092511320987700429e+00
4.599999999999999898e-07 9.212685758804194264e+26 3.091556993124124464e+00
4.699999999999999999e-07 9.114510554709320310e+26 3.091143614472134704e+00
4.800000000000000630e-07 9.020338596897544577e+26 3.090225954014828247e+00
4.899999999999999672e-07 8.930398661675780284e+26 3.089498566752153952e+00
4.999999999999999774e-07 8.840051304359089083e+26 3.088789014100414843e+00
5.099999999999999875e-07 8.752223036278732998e+26 3.088095343422669892e+00
5.199999999999999976e-07 8.665926458449431343e+26 3.087426215001518148e+00
5.300000000000000078e-07 8.581126566603030669e+26 3.086764455047934952e+00
5.400000000000000179e-07 8.500036561291909021e+26 3.085772326091329898e+00
5.500000000000000281e-07 8.419892001641905621e+26 3.085137343580224734e+00
5.600000000000000382e-07 8.340240974515641779e+26 3.084695473542137911e+00
5.700000000000000483e-07 8.263549665410850611e+26 3.084088797242798830e+00
5.800000000000000585e-07 8.189327498422485341e+26 3.083147897357454870e+00
5.899999999999999627e-07 8.115598595246652985e+26 3.082740043365891136e+00
5.999999999999999728e-07 8.043253475573813172e+26 3.082002007744467420e+00
6.099999999999999830e-07 7.972782755879299865e+26 3.081447676379231559e+00
6.199999999999999931e-07 7.903499498815296901e+26 3.080730749129084955e+00
6.300000000000000033e-07 7.832768241523022623e+26 3.080380489536647115e+00
6.400000000000000134e-07 7.767030187320676917e+26 3.079683847031857713e+00
6.500000000000000235e-07 7.701650071356913471e+26 3.079000999193147070e+00
6.600000000000000337e-07 7.637232272135265324e+26 3.078682930952576502e+00
6.700000000000000438e-07 7.575243125081864198e+26 3.078019374602472435e+00
6.800000000000000539e-07 7.513527232199433547e+26 3.077367399691937511e+00
6.900000000000000641e-07 7.453444661108739821e+26 3.076723100153871737e+00
6.999999999999999683e-07 7.391687428735376228e+26 3.076627492604640413e+00
7.099999999999999785e-07 7.333344190851787818e+26 3.076004810610833751e+00
7.199999999999999886e-07 7.276923108159507457e+26 3.075392032749847626e+00
7.299999999999999987e-07 7.220023918518566646e+26 3.074964616150861030e+00
7.400000000000000089e-07 7.165612190300173059e+26 3.074370685496710998e+00
7.500000000000000190e-07 7.108644335418415549e+26 3.073960829852440568e+00
7.600000000000000291e-07 7.055528431495750509e+26 3.073562273155089564e+00
7.700000000000000393e-07 7.003938669148948154e+26 3.072995630379025567e+00
7.800000000000000494e-07 6.951799551659014088e+26 3.072610669675374329e+00
7.900000000000000595e-07 6.900420599245205295e+26 3.071870882395171698e+00
7.999999999999999638e-07 6.850991065174703033e+26 3.071331233449394293e+00
8.099999999999999739e-07 6.801855667860933402e+26 3.070967593200125911e+00
8.199999999999999841e-07 6.751832306377665913e+26 3.070621043111071646e+00
8.299999999999999942e-07 6.704661272144254062e+26 3.070281211858014281e+00
8.400000000000000043e-07 6.658167572785993637e+26 3.069570851252457100e+00
8.500000000000000145e-07 6.610908604045245902e+26 3.069245137634786680e+00
8.600000000000000246e-07 6.565550418444280396e+26 3.068929535454858470e+00
8.700000000000000347e-07 6.521011122604476410e+26 3.068619582798890910e+00
8.800000000000000449e-07 6.475836128565845148e+26 3.067933444580190461e+00
8.900000000000000550e-07 6.432406088109690863e+26 3.067814774162551661e+00
9.000000000000000652e-07 6.388929190900762838e+26 3.067151569904785102e+00
9.099999999999999694e-07 6.346956915398976058e+26 3.066870918637990329e+00
9.199999999999999795e-07 6.306684432993030175e+26 3.066219054331457805e+00
9.299999999999999897e-07 6.263884817644556343e+26 3.066128368476188193e+00
9.399999999999999998e-07 6.224154683017228309e+26 3.065865838675962518e+00
9.500000000000000100e-07 6.183779920187176558e+26 3.065232806230546281e+00
9.600000000000001260e-07 6.144991558422822936e+26 3.064767412448680783e+00
9.700000000000000302e-07 6.106579618965090650e+26 3.064525322296364429e+00
9.799999999999999345e-07 6.067368173912536692e+26 3.064086130888822979e+00
9.900000000000000505e-07 6.030146320036777219e+26 3.063854464812005407e+00
9.999999999999999547e-07 5.992018088535048697e+26 3.063426324101948595e+00
1.010000000000000071e-06 5.956759060444598281e+26 3.062825003981692884e+00
1.019999999999999975e-06 5.919029958820261289e+26 3.062788979603392914e+00
1.030000000000000091e-06 5.883856823504292097e+26 3.062378227706950895e+00
1.039999999999999995e-06 5.848655139098123414e+26 3.061790367198255147e+00
1.050000000000000111e-06 5.814112031360021643e+26 3.061791623000636786e+00
1.060000000000000016e-06 5.778967498632679317e+26 3.061394124025565322e+00
1.069999999999999920e-06 5.746036776942036899e+26 3.061001450539448054e+00
1.080000000000000036e-06 5.711703361010026171e+26 3.060819743891367128e+00
1.089999999999999940e-06 5.679649582401366796e+26 3.060436815140270550e+00
1.100000000000000056e-06 5.646300535729514796e+26 3.060057641273898454e+00
1.109999999999999960e-06 5.613381623826128766e+26 3.059682598457563518e+00
1.120000000000000076e-06 5.582309502656280157e+26 3.059312458978392879e+00
1.129999999999999981e-06 5.550212895793020653e+26 3.058945644167770705e+00
1.140000000000000097e-06 5.519527919153633432e+26 3.058995697584185880e+00
1.150000000000000001e-06 5.488574470411335366e+26 3.058635900159627052e+00
1.160000000000000117e-06 5.458963352478703667e+26 3.058284686209639780e+00
1.170000000000000021e-06 5.428417827849239799e+26 3.057934521815988127e+00
1.179999999999999925e-06 5.398244593570261157e+26 3.057588136859663130e+00
1.190000000000000041e-06 5.370338155964613742e+26 3.057270515341489858e+00
1.199999999999999946e-06 5.340877668171302611e+26 3.056931864839707025e+00
1.210000000000000062e-06 5.311769117276757675e+26 3.056596916157137578e+00
1.219999999999999966e-06 5.284608741056425135e+26 3.056267119724765280e+00
1.230000000000000082e-06 5.256441951448509687e+26 3.055964738540845715e+00
1.239999999999999986e-06 5.229341163216162377e+26 3.055644424103380885e+00
1.250000000000000102e-06 5.201564910420843369e+26 3.055324365396883124e+00
1.260000000000000007e-06 5.173977200501771444e+26 3.055184781898020230e+00
1.270000000000000123e-06 5.148331886837323125e+26 3.054901835713976332e+00
1.280000000000000027e-06 5.121500836647337990e+26 3.054592602793415157e+00
1.289999999999999931e-06 5.095303226604076037e+26 3.054284962665130276e+00
1.300000000000000047e-06 5.070090800450634540e+26 3.054192597940282194e+00
1.309999999999999951e-06 5.044160491666432804e+26 3.053893801392103313e+00
1.320000000000000067e-06 5.018522876825984065e+26 3.053598310715252673e+00
1.329999999999999972e-06 4.993290444907996023e+26 3.053511321033376635e+00
1.340000000000000088e-06 4.969408944944519941e+26 3.053226444151327712e+00
1.349999999999999992e-06 4.944411203634678968e+26 3.053148670291430111e+00
1.360000000000000108e-06 4.920423973992740990e+26 3.052469274925277087e+00
1.370000000000000012e-06 4.897095960353766672e+26 3.052193886496116448e+00
1.380000000000000128e-06 4.873206828941123438e+26 3.052124260542970813e+00
1.390000000000000032e-06 4.849461505223881743e+26 3.051850679215456275e+00
1.399999999999999937e-06 4.825771541140639264e+26 3.051789610637652306e+00
1.410000000000000053e-06 4.804201994816942306e+26 3.051127663563353742e+00
1.419999999999999957e-06 4.780761591188931229e+26 3.051041911260129691e+00
1.430000000000000073e-06 4.758534491063557550e+26 3.050809033371939094e+00
1.439999999999999977e-06 4.735572330642991342e+26 3.050728920426633461e+00
1.450000000000000093e-06 4.714631329074335299e+26 3.050508763071589247e+00
1.459999999999999997e-06 4.692643803251642000e+26 3.050033969385509636e+00
1.470000000000000113e-06 4.670596979370677451e+26 3.049994335362102849e+00
1.480000000000000018e-06 4.649262534399502182e+26 3.049743873099853619e+00
1.490000000000000134e-06 4.628533886423727590e+26 3.049715137444623192e+00
1.500000000000000038e-06 4.607837663573427905e+26 3.049070336792605307e+00
1.509999999999999942e-06 4.586652810651415109e+26 3.049042369758586002e+00
1.520000000000000058e-06 4.565454709315967759e+26 3.048983491760133280e+00
1.529999999999999963e-06 4.545600890996878071e+26 3.048379147819627377e+00
1.540000000000000079e-06 4.526182485579636430e+26 3.048328796756910375e+00
1.549999999999999983e-06 4.505812590197589386e+26 3.048311965926205680e+00
1.560000000000000099e-06 4.485918824231180614e+26 3.047859795312737319e+00
1.570000000000000003e-06 4.466350720137455928e+26 3.047668951237522794e+00
1.580000000000000119e-06 4.446568155449460706e+26 3.047660530219708619e+00
1.590000000000000023e-06 4.428307738951625461e+26 3.047220433836367093e+00
1.599999999999999928e-06 4.409181496754596391e+26 3.047215483607133013e+00
1.610000000000000044e-06 4.390414955613855528e+26 3.046594292587843977e+00
1.619999999999999948e-06 4.371373409591966857e+26 3.046596455035960549e+00
1.630000000000000064e-06 4.352511505712812368e+26 3.046601347978906027e+00
1.639999999999999968e-06 4.334096357797011551e+26 3.046165945251325446e+00
1.650000000000000084e-06 4.316613607859159424e+26 3.046181698738890109e+00
1.659999999999999988e-06 4.298536786928929738e+26 3.045750148578181271e+00
1.670000000000000104e-06 4.280749414415691877e+26 3.045585098830486004e+00
1.680000000000000009e-06 4.263480542426266288e+26 3.045193295790436405e+00
1.690000000000000125e-06 4.245422496867973720e+26 3.045174743443622489e+00
1.700000000000000029e-06 4.227729981720371771e+26 3.045196414852226585e+00
1.709999999999999933e-06 4.210661817949068326e+26 3.044812993653862598e+00
1.720000000000000049e-06 4.194079602880763450e+26 3.044806702222584427e+00
1.729999999999999953e-06 4.177312323412773212e+26 3.044427011206165545e+00
1.740000000000000069e-06 4.160024642157443816e+26 3.044457904308006224e+00
1.749999999999999974e-06 4.143355530893858402e+26 3.044042490155688174e+00
1.760000000000000090e-06 4.126570093069485981e+26 3.044077449590786966e+00
1.769999999999999994e-06 4.110386474989334462e+26 3.043705438615187830e+00
1.780000000000000110e-06 4.093692051042362056e+26 3.043704396701860215e+00
1.790000000000000014e-06 4.078049401431253322e+26 3.043333920893672051e+00
1.800000000000000130e-06 4.061830204410444512e+26 3.043377317419201589e+00
1.810000000000000035e-06 4.046008092329116791e+26 3.042971703034383246e+00
1.819999999999999939e-06 4.031475675159475020e+26 3.042615134691523338e+00
1.830000000000000055e-06 4.015664702877078645e+26 3.042664987248287822e+00
1.839999999999999959e-06 4.000246565420849792e+26 3.042264159960180514e+00
1.850000000000000075e-06 3.984706250516964138e+26 3.042317983120797820e+00
1.859999999999999979e-06 3.969543814196421299e+26 3.041962379304242070e+00
1.870000000000000095e-06 3.954266419846265354e+26 3.042020519134318146e+00
1.880000000000000000e-06 3.939371494671107800e+26 3.041626391886087966e+00
1.890000000000000116e-06 3.924788108155911832e+26 3.041275895965850573e+00
1.900000000000000020e-06 3.909530433539719882e+26 3.041520304744688818e+00
1.909999999999999924e-06 3.895192032924597777e+26 3.041173721579166767e+00
1.920000000000000252e-06 3.880354927534586431e+26 3.041198721955350237e+00
1.930000000000000156e-06 3.866253369657056111e+26 3.040855424302688625e+00
1.940000000000000060e-06 3.852266344665885043e+26 3.040513623222007578e+00
1.949999999999999965e-06 3.837962251536781466e+26 3.040587433994039745e+00
1.959999999999999869e-06 3.823848322432784058e+26 3.040429464979657936e+00
1.970000000000000197e-06 3.809834197445671475e+26 3.040460604637053699e+00
1.980000000000000101e-06 3.797197088955710991e+26 3.040133027469664739e+00
1.990000000000000005e-06 3.783569714746644387e+26 3.039799312166384215e+00
1.999999999999999909e-06 3.769816326614649935e+26 3.039881918460442645e+00
2.010000000000000237e-06 3.756245181769908168e+26 3.039731889564794454e+00
2.020000000000000142e-06 3.742949291331185886e+26 3.039357477807415719e+00
2.030000000000000046e-06 3.729512163534461852e+26 3.039445036269280198e+00
2.039999999999999950e-06 3.716594773174584390e+26 3.039118817416501805e+00
2.049999999999999854e-06 3.703776369187783242e+26 3.038793889768550027e+00
2.060000000000000182e-06 3.690715248687536846e+26 3.038650731709274577e+00
2.070000000000000086e-06 3.677507491547819765e+26 3.038699036651210328e+00
2.079999999999999991e-06 3.664982235783725021e+26 3.038378240873872649e+00
2.089999999999999895e-06 3.652214640403469265e+26 3.038239192601722483e+00
2.100000000000000223e-06 3.639469711616276601e+26 3.038338322852655704e+00
2.110000000000000127e-06 3.627045585916715991e+26 3.038022011325625105e+00
2.120000000000000031e-06 3.614897281222233519e+26 3.037706955689439603e+00
2.129999999999999935e-06 3.602102402549957476e+26 3.037991427086085494e+00
2.139999999999999840e-06 3.589972145061337505e+26 3.037632001769368539e+00
2.150000000000000167e-06 3.578099398876719307e+26 3.037321045372595840e+00
2.160000000000000072e-06 3.565986202020650028e+26 3.037192009256370451e+00
2.169999999999999976e-06 3.553891880867429442e+26 3.037302230699086003e+00
2.179999999999999880e-06 3.541959319522001123e+26 3.037176297230923971e+00
2.190000000000000208e-06 3.530442195734248054e+26 3.036871120018291403e+00
2.200000000000000112e-06 3.519011139184582556e+26 3.036567205642191070e+00
2.210000000000000016e-06 3.506944848938796398e+26 3.036864407627284823e+00
2.219999999999999921e-06 3.494690378764577045e+26 3.036505986393571721e+00
2.230000000000000248e-06 3.483115844523641741e+26 3.036207933551554383e+00
2.240000000000000153e-06 3.471698865177288332e+26 3.036089717321357462e+00
2.250000000000000057e-06 3.460682659595661872e+26 3.035792016774895519e+00
2.259999999999999961e-06 3.449034853325180141e+26 3.036096404285408390e+00
2.269999999999999866e-06 3.438175029507256093e+26 3.035801416655826923e+00
2.280000000000000193e-06 3.427391558011001300e+26 3.035507507638373514e+00
2.290000000000000098e-06 3.416366839668284910e+26 3.035395503887547530e+00
2.300000000000000002e-06 3.405734825394030259e+26 3.035103891371714546e+00
2.309999999999999906e-06 3.394478341644775110e+26 3.035415307496699633e+00
2.320000000000000234e-06 3.383996409606127676e+26 3.035126324907563955e+00
2.330000000000000138e-06 3.373274785345941547e+26 3.035019232465604677e+00
2.340000000000000042e-06 3.362785578579941136e+26 3.034681695132703805e+00
2.349999999999999947e-06 3.352211862021605437e+26 3.034576606227673334e+00
2.359999999999999851e-06 3.341850633619085295e+26 3.034291966410802566e+00
2.370000000000000179e-06 3.331043679205618762e+26 3.034611449068069788e+00
2.380000000000000083e-06 3.320994759578243268e+26 3.034329338539043963e+00
2.389999999999999987e-06 3.310707368475362934e+26 3.034229102333305672e+00
2.399999999999999891e-06 3.300010499484180694e+26 3.033939865654750712e+00
2.410000000000000219e-06 3.289862781236614135e+26 3.033841765834932591e+00
2.420000000000000123e-06 3.280087291352602845e+26 3.033563958243032932e+00
2.430000000000000028e-06 3.269493958274209803e+26 3.033893202625190799e+00
2.439999999999999932e-06 3.259850609139374373e+26 3.033617759109974887e+00
2.450000000000000260e-06 3.249969139039495437e+26 3.033524208617074169e+00
2.460000000000000164e-06 3.240454239907229860e+26 3.033250804694519243e+00
2.470000000000000068e-06 3.230702069854358631e+26 3.033159324292558523e+00
2.479999999999999972e-06 3.221148762494164370e+26 3.032887997428908022e+00
2.489999999999999877e-06 3.211523804754328843e+26 3.032798597274029007e+00
2.500000000000000205e-06 3.202259955533460393e+26 3.032529291588861753e+00
2.510000000000000109e-06 3.191999617754575692e+26 3.032432264978874414e+00
2.520000000000000013e-06 3.182200869833415433e+26 3.032770592513346131e+00
2.529999999999999917e-06 3.173120790676848692e+26 3.032504538086976620e+00
2.540000000000000245e-06 3.163804727167098951e+26 3.032420397840413173e+00
2.550000000000000149e-06 3.154641341902558404e+26 3.032158293048290876e+00
2.560000000000000054e-06 3.145443943799371356e+26 3.032076119987253460e+00
2.569999999999999958e-06 3.136305385523208650e+26 3.031994876314876741e+00
2.579999999999999862e-06 3.127516562815152410e+26 3.031733701107306000e+00
2.590000000000000190e-06 3.118493425451722612e+26 3.031654459568237758e+00
2.600000000000000094e-06 3.109077342174541656e+26 3.031385226134279520e+00
2.609999999999999998e-06 3.100009247885602513e+26 3.031307976768709000e+00
2.619999999999999903e-06 3.091156536579449736e+26 3.031231617034496839e+00
2.630000000000000230e-06 3.082294930129025662e+26 3.031401530360033902e+00
2.640000000000000135e-06 3.073551952411185178e+26 3.031327330387366903e+00
2.650000000000000039e-06 3.064668205680351008e+26 3.031256065861163140e+00
