# z (um)	 Electron density (m^-3)
0.000000000000000000e+00 6.032661311572293974e+26 4.554298172728806549e+00
1.000000000000000021e-08 5.975383989794678564e+26 4.553591871031337668e+00
2.000000000000000042e-08 5.920418474141562240e+26 4.552994502135518040e+00
3.000000000000000394e-08 5.866447144583909699e+26 4.552426487873105998e+00
4.000000000000000084e-08 5.812990907530998969e+26 4.551237029948439705e+00
4.999999999999999774e-08 5.760936224513347621e+26 4.550723691842324392e+00
6.000000000000000787e-08 5.709795926983414877e+26 4.550242784376338889e+00
7.000000000000000477e-08 5.657902007433191489e+26 4.549054840422645185e+00
8.000000000000000167e-08 5.608741054502645376e+26 4.548630345161041255e+00
8.999999999999999857e-08 5.560250871035332005e+26 4.548230466690777796e+00
9.999999999999999547e-08 5.512157846227294895e+26 4.547230028402950097e+00
1.100000000000000056e-07 5.464130109513212455e+26 4.546779848152406878e+00
1.200000000000000157e-07 5.418097179818748547e+26 4.546480051166990499e+00
1.299999999999999994e-07 5.372388408348643632e+26 4.545542473949581108e+00
1.400000000000000095e-07 5.326735157063973489e+26 4.545187707719223091e+00
1.499999999999999932e-07 5.282534054855282506e+26 4.544303043054064517e+00
1.600000000000000033e-07 5.239496245366949119e+26 4.544111909506008296e+00
1.700000000000000135e-07 5.195787140477090340e+26 4.543164777806246946e+00
1.799999999999999971e-07 5.153736636091404422e+26 4.542363550674321182e+00
1.900000000000000073e-07 5.111652171506058554e+26 4.542139667179322160e+00
1.999999999999999909e-07 5.070921765362435850e+26 4.541381035473459171e+00
2.100000000000000011e-07 5.029765713936613056e+26 4.540540787414493629e+00
2.200000000000000112e-07 4.990726664751249808e+26 4.540495945370007114e+00
2.299999999999999949e-07 4.951883845353031249e+26 4.539811033946589802e+00
2.400000000000000315e-07 4.912593698404219162e+26 4.539046957152422124e+00
2.499999999999999887e-07 4.875353327733363554e+26 4.539078240125808961e+00
2.599999999999999988e-07 4.837433253395603060e+26 4.538356684322912393e+00
2.700000000000000090e-07 4.799916373814047758e+26 4.537653431087223410e+00
2.800000000000000191e-07 4.763990082454145920e+26 4.537089916890100660e+00
2.900000000000000292e-07 4.727588801640220461e+26 4.536430423783635923e+00
2.999999999999999864e-07 4.693106610141656150e+26 4.536577373291550863e+00
3.099999999999999966e-07 4.657770551346583783e+26 4.535961994923829899e+00
3.200000000000000067e-07 4.623950038617282108e+26 4.535490604679140780e+00
3.300000000000000168e-07 4.589640515873902814e+26 4.534918065526746922e+00
3.400000000000000270e-07 4.555833675649723499e+26 4.534366457987740517e+00
3.499999999999999842e-07 4.523654582873807622e+26 4.533959347561417275e+00
3.599999999999999943e-07 4.490819339074748959e+26 4.533442260778867805e+00
3.700000000000000044e-07 4.458447529398888996e+26 4.532956777781498303e+00
3.800000000000000146e-07 4.427480997618032619e+26 4.532608956457408134e+00
3.900000000000000247e-07 4.396016077569164462e+26 4.532164396966406272e+00
3.999999999999999819e-07 4.365009754447474045e+26 4.531733498471627541e+00
4.099999999999999920e-07 4.335005210012333609e+26 4.530773610550734354e+00
4.200000000000000022e-07 4.304846011810894220e+26 4.530380038899769701e+00
4.300000000000000123e-07 4.275093161422239172e+26 4.530013957022049453e+00
4.400000000000000224e-07 4.246820691158290065e+26 4.529788860495536085e+00
4.500000000000000326e-07 4.217884871475466330e+26 4.529451809049089839e+00
4.599999999999999898e-07 4.189333171357607056e+26 4.529134930655806635e+00
4.699999999999999999e-07 4.160824995918829567e+26 4.528169794360698219e+00
4.800000000000000630e-07 4.133926524108587364e+26 4.528008522382959811e+00
4.899999999999999672e-07 4.106496762591615081e+26 4.527746656158341487e+00
4.999999999999999774e-07 4.079421171833955173e+26 4.527511547454689200e+00
5.099999999999999875e-07 4.052393405201889633e+26 4.526607476792760210e+00
5.199999999999999976e-07 4.026188086594609842e+26 4.526398898001701809e+00
5.300000000000000078e-07 4.001010247227999600e+26 4.526339708717665999e+00
5.400000000000000179e-07 3.975014208013025738e+26 4.525476482666323186e+00
5.500000000000000281e-07 3.949641949326455128e+26 4.525329002723293748e+00
5.600000000000000382e-07 3.924621600973647829e+26 4.525172513009660946e+00
5.700000000000000483e-07 3.899577589576639397e+26 4.524383397580916011e+00
5.800000000000000585e-07 3.875183888431614343e+26 4.524259628019694723e+00
5.899999999999999627e-07 3.851585793561402596e+26 4.523622842886569906e+00
5.999999999999999728e-07 3.827799055128999203e+26 4.523534101392866269e+00
6.099999999999999830e-07 3.804130479252006254e+26 4.522805811947408827e+00
6.199999999999999931e-07 3.780931989303353181e+26 4.522748441499841121e+00
6.300000000000000033e-07 3.758016624343663666e+26 4.522703129852803983e+00
6.400000000000000134e-07 3.735063392287449577e+26 4.522021827752494616e+00
6.500000000000000235e-07 3.712706895160367187e+26 4.522011131504665826e+00
6.600000000000000337e-07 3.690314481730572205e+26 4.521350594134035283e+00
6.700000000000000438e-07 3.668200400972966282e+26 4.520695631391380864e+00
6.800000000000000539e-07 3.646652070121428493e+26 4.520724835644292838e+00
6.900000000000000641e-07 3.625203029625084188e+26 4.520112606712118897e+00
6.999999999999999683e-07 3.604166018427035410e+26 4.520171202519471798e+00
7.099999999999999785e-07 3.583082920128694661e+26 4.519573207167975504e+00
7.199999999999999886e-07 3.562237184037107755e+26 4.519004909559687810e+00
7.299999999999999987e-07 3.541934974614237407e+26 4.519106008153750409e+00
7.400000000000000089e-07 3.521586088956428175e+26 4.518538759185129372e+00
7.500000000000000190e-07 3.501730903166059434e+26 4.518704946319100912e+00
7.600000000000000291e-07 3.481844547284637950e+26 4.518164988890440270e+00
7.700000000000000393e-07 3.462188281318799748e+26 4.517637076303315347e+00
7.800000000000000494e-07 3.442898009200900400e+26 4.517118717231435099e+00
7.900000000000000595e-07 3.423937857171514593e+26 4.517333279039505101e+00
7.999999999999999638e-07 3.404937124911054537e+26 4.516843160183180217e+00
8.099999999999999739e-07 3.386145940455829478e+26 4.516362504136581357e+00
8.199999999999999841e-07 3.367834199747020677e+26 4.516585458690137500e+00
8.299999999999999942e-07 3.349448390674658678e+26 4.516143684877202524e+00
8.400000000000000043e-07 3.331254977749443160e+26 4.515734616348315633e+00
8.500000000000000145e-07 3.313283547624317974e+26 4.515300490645534737e+00
8.600000000000000246e-07 3.295651432151311205e+26 4.514881840624916265e+00
8.700000000000000347e-07 3.278336030498287102e+26 4.515162866594151225e+00
8.800000000000000449e-07 3.260956970253726250e+26 4.514763124442604969e+00
8.900000000000000550e-07 3.243121536527903350e+26 4.514235315080091127e+00
9.000000000000000652e-07 3.226099023218187603e+26 4.513862201635773452e+00
9.099999999999999694e-07 3.209212942229458707e+26 4.513542847445496164e+00
9.199999999999999795e-07 3.192522972208755996e+26 4.513200563307472102e+00
9.299999999999999897e-07 3.176009285250871670e+26 4.512869655638746202e+00
9.399999999999999998e-07 3.159922447634311270e+26 4.513241665724894602e+00
9.500000000000000100e-07 3.143893065281513001e+26 4.512929724165375411e+00
9.600000000000001260e-07 3.127229992763352568e+26 4.512508641895458084e+00
9.700000000000000302e-07 3.111405306689320644e+26 4.512210105873402988e+00
9.799999999999999345e-07 3.095737164047375883e+26 4.511935149076927054e+00
9.900000000000000505e-07 3.080230314327102328e+26 4.511671100002248913e+00
9.999999999999999547e-07 3.064882397029143301e+26 4.511417870428617860e+00
1.010000000000000071e-06 3.049691087154771550e+26 4.511175366028658651e+00
1.019999999999999975e-06 3.034013120837969110e+26 4.510819452520481221e+00
1.030000000000000091e-06 3.019275775916884226e+26 4.510584971410955824e+00
1.039999999999999995e-06 3.004543305183641073e+26 4.510373993517283964e+00
1.050000000000000111e-06 2.989958431518813569e+26 4.510173342380347172e+00
1.060000000000000016e-06 2.975519014949608355e+26 4.509982913519953840e+00
1.069999999999999920e-06 2.960605222331538559e+26 4.509664970453134636e+00
1.080000000000000036e-06 2.946453324550115588e+26 4.509494620714809443e+00
1.089999999999999940e-06 2.932440533153589568e+26 4.509334171244050005e+00
1.100000000000000056e-06 2.918564897818320990e+26 4.509183525315466845e+00
1.109999999999999960e-06 2.904354168462824447e+26 4.508904963323395521e+00
1.120000000000000076e-06 2.890749591620316735e+26 4.508773618965964403e+00
1.129999999999999981e-06 2.877276395809822811e+26 4.508651789595070625e+00
1.140000000000000097e-06 2.863956160563784760e+26 4.508482175354307842e+00
1.150000000000000001e-06 2.850140207328476949e+26 4.508255340078090256e+00
1.160000000000000117e-06 2.837060054964905434e+26 4.508146712606944106e+00
1.170000000000000021e-06 2.824097266139942622e+26 4.508062008552911060e+00
1.179999999999999925e-06 2.811257081245525468e+26 4.507986407319574340e+00
1.190000000000000041e-06 2.798088706891193766e+26 4.507781618400348300e+00
1.199999999999999946e-06 2.785267031356401313e+26 4.507030842868614329e+00
1.210000000000000062e-06 2.772810998285919528e+26 4.506921573473666953e+00
1.219999999999999966e-06 2.759867802022029654e+26 4.506758048731527744e+00
1.230000000000000082e-06 2.747628528419683803e+26 4.506711188223996523e+00
1.239999999999999986e-06 2.735495422750345379e+26 4.506688667701728157e+00
1.250000000000000102e-06 2.723480664295451131e+26 4.506658957317815073e+00
1.260000000000000007e-06 2.711000132787605922e+26 4.506530312378891345e+00
1.270000000000000123e-06 2.699135797614258694e+26 4.505777114011605633e+00
1.280000000000000027e-06 2.687443314596116789e+26 4.505788823497177908e+00
1.289999999999999931e-06 2.675302291020031602e+26 4.505669241837857442e+00
1.300000000000000047e-06 2.663822673002297113e+26 4.505697648109801001e+00
1.309999999999999951e-06 2.652468863356839712e+26 4.505670139213773240e+00
1.320000000000000067e-06 2.640428469889910222e+26 4.504892674791417306e+00
1.329999999999999972e-06 2.629263902637723969e+26 4.504932637629292635e+00
1.340000000000000088e-06 2.618192086908321736e+26 4.504993480507012649e+00
1.349999999999999992e-06 2.606822998681413998e+26 4.504873965528764401e+00
1.360000000000000108e-06 2.595947858631304888e+26 4.504950683356811147e+00
1.370000000000000012e-06 2.584425706742277743e+26 4.504198803242512206e+00
1.380000000000000128e-06 2.573743192204867527e+26 4.504290621204759759e+00
1.390000000000000032e-06 2.563175814764973102e+26 4.504323149104129342e+00
1.399999999999999937e-06 2.551938908924526110e+26 4.503606856765387967e+00
1.410000000000000053e-06 2.541540751523105367e+26 4.503707394962902733e+00
1.419999999999999957e-06 2.531247767530218269e+26 4.503760838505127317e+00
1.430000000000000073e-06 2.520620464406468835e+26 4.503767589104461955e+00
1.439999999999999977e-06 2.510287250127897157e+26 4.503185021382592801e+00
1.450000000000000093e-06 2.499729490800921447e+26 4.503158151933200237e+00
1.459999999999999997e-06 2.489772092439806756e+26 4.503290616797595902e+00
1.470000000000000113e-06 2.479699052789482270e+26 4.502728680381734350e+00
1.480000000000000018e-06 2.469402540144900246e+26 4.502722440883106358e+00
1.490000000000000134e-06 2.459696613825677095e+26 4.502875685375570924e+00
1.500000000000000038e-06 2.449357258671059025e+26 4.502229854032000489e+00
1.509999999999999942e-06 2.439954267126592305e+26 4.502348864724854849e+00
1.520000000000000058e-06 2.430490758132517076e+26 4.502522548651412215e+00
1.529999999999999963e-06 2.420399834806227195e+26 4.501897003015921328e+00
1.540000000000000079e-06 2.411109246308268160e+26 4.502035082833122814e+00
1.549999999999999983e-06 2.401373687695638061e+26 4.502125118139534088e+00
1.560000000000000099e-06 2.392044304435498545e+26 4.501569652661376431e+00
1.570000000000000003e-06 2.382471600238959349e+26 4.501657787535249255e+00
1.580000000000000119e-06 2.373272930406628434e+26 4.501187924306431221e+00
1.590000000000000023e-06 2.364482338708718898e+26 4.501358435816568360e+00
1.599999999999999928e-06 2.355136563688293766e+26 4.501461801580377120e+00
1.610000000000000044e-06 2.346172957244821246e+26 4.500956524377312640e+00
1.619999999999999948e-06 2.336974803273712183e+26 4.501076468731775471e+00
1.630000000000000064e-06 2.328161053167721897e+26 4.500563054360895876e+00
1.639999999999999968e-06 2.319100933066058721e+26 4.500715176367918957e+00
1.650000000000000084e-06 2.310412478093468523e+26 4.500268698619054319e+00
1.659999999999999988e-06 2.301635821247748732e+26 4.500354153086068898e+00
1.670000000000000104e-06 2.293262183097052510e+26 4.500646873882819143e+00
1.680000000000000009e-06 2.284317297423597874e+26 4.500039353645542306e+00
1.690000000000000125e-06 2.276082403628334967e+26 4.500323498160030411e+00
1.700000000000000029e-06 2.267267368006378471e+26 4.499747173803656963e+00
1.709999999999999933e-06 2.259161925830101624e+26 4.500042788525391302e+00
1.720000000000000049e-06 2.250486235525698395e+26 4.499456723682833115e+00
1.729999999999999953e-06 2.242501246880759685e+26 4.499784208827617427e+00
1.740000000000000069e-06 2.234075409427937976e+26 4.499209597721809395e+00
1.749999999999999974e-06 2.226220656604074943e+26 4.499523668550740041e+00
1.760000000000000090e-06 2.217802393190668001e+26 4.498962683032545762e+00
1.769999999999999994e-06 2.210062882467305316e+26 4.499308826651031268e+00
1.780000000000000110e-06 2.201769513308446197e+26 4.498758455345863716e+00
1.790000000000000014e-06 2.194154934568011510e+26 4.499094598480303020e+00
1.800000000000000130e-06 2.185977675576142048e+26 4.498575879786733012e+00
1.810000000000000035e-06 2.178597648322826838e+26 4.498923728376465370e+00
1.819999999999999939e-06 2.170545896365287795e+26 4.498394234273914272e+00
1.830000000000000055e-06 2.163161096393321461e+26 4.498752023810395073e+00
1.839999999999999959e-06 2.155220356636861692e+26 4.498254290309384729e+00
1.850000000000000075e-06 2.147946597366869083e+26 4.498626632594151964e+00
1.859999999999999979e-06 2.140126682060317295e+26 4.498113549663827371e+00
1.870000000000000095e-06 2.132789836538542829e+26 4.497790639214617414e+00
1.880000000000000000e-06 2.125247858424214426e+26 4.498014668217193979e+00
1.890000000000000116e-06 2.118149506015532365e+26 4.497643161277980361e+00
1.900000000000000020e-06 2.110708005040591758e+26 4.497914453664462187e+00
1.909999999999999924e-06 2.103164702607930161e+26 4.497429024018435584e+00
1.920000000000000252e-06 2.096256866569216409e+26 4.497854698491628334e+00
1.930000000000000156e-06 2.088819877090194705e+26 4.497378651663740179e+00
1.940000000000000060e-06 2.082032585123595635e+26 4.497735697482442951e+00
1.949999999999999965e-06 2.074686224512860226e+26 4.497324647982725132e+00
1.959999999999999869e-06 2.067940960381121877e+26 4.497007285767381290e+00
1.970000000000000197e-06 2.060863279794268369e+26 4.497311682841607983e+00
1.980000000000000101e-06 2.054105853446655163e+26 4.496980345543605040e+00
1.990000000000000005e-06 2.047140873333415468e+26 4.497232982264829815e+00
1.999999999999999909e-06 2.040046751017299505e+26 4.496848259033324524e+00
2.010000000000000237e-06 2.033427790684496306e+26 4.496552223834387796e+00
2.020000000000000142e-06 2.026595057189625001e+26 4.496879167396961030e+00
2.030000000000000046e-06 2.020075104825420771e+26 4.496569315918816478e+00
2.039999999999999950e-06 2.013302373988050722e+26 4.496137140342939098e+00
2.049999999999999854e-06 2.006611081526621720e+26 4.496481579159359754e+00
2.060000000000000182e-06 2.000222816429722995e+26 4.496207375151854535e+00
2.070000000000000086e-06 1.993636980458489424e+26 4.496494996328594951e+00
2.079999999999999991e-06 1.987330167693740384e+26 4.496268408757353008e+00
2.089999999999999895e-06 1.980674390243591998e+26 4.495861292143302101e+00
2.100000000000000223e-06 1.974223938558127531e+26 4.496161879956933838e+00
2.110000000000000127e-06 1.968156333512308466e+26 4.495972002290088199e+00
2.120000000000000031e-06 1.961634889533366288e+26 4.495573605079466795e+00
2.129999999999999935e-06 1.955715649060850011e+26 4.496013790209010708e+00
2.139999999999999840e-06 1.949267521856291609e+26 4.495690342929630212e+00
2.150000000000000167e-06 1.942876480889261283e+26 4.495304156478314717e+00
2.160000000000000072e-06 1.937080637898403270e+26 4.495756662557850447e+00
2.169999999999999976e-06 1.930754744971307026e+26 4.495468932797304085e+00
2.179999999999999880e-06 1.924996037381916758e+26 4.495217700284478646e+00
2.190000000000000208e-06 1.918771681753534961e+26 4.494850764102253926e+00
2.200000000000000112e-06 1.912730109227574281e+26 4.495259536839691705e+00
2.210000000000000016e-06 1.906977346013521040e+26 4.495019219422815127e+00
2.219999999999999921e-06 1.900874543445845776e+26 4.494663320596509415e+00
2.230000000000000248e-06 1.894946504385446345e+26 4.495107230198785331e+00
2.240000000000000153e-06 1.889308846244197186e+26 4.494881772333529035e+00
2.250000000000000057e-06 1.883436120895177198e+26 4.494532831008321239e+00
2.259999999999999961e-06 1.877873448585738541e+26 4.494314047611652541e+00
2.269999999999999866e-06 1.872103856976659493e+26 4.494749174041349882e+00
2.280000000000000193e-06 1.866234477961910686e+26 4.494410761778490304e+00
2.290000000000000098e-06 1.860782225731529576e+26 4.494202650158231727e+00
2.300000000000000002e-06 1.855132004835367329e+26 4.494608170554674764e+00
2.309999999999999906e-06 1.849362382837428598e+26 4.494345230358100629e+00
2.320000000000000234e-06 1.844128784067874589e+26 4.494147907823414556e+00
2.330000000000000138e-06 1.838444881632989209e+26 4.493830984511613558e+00
2.340000000000000042e-06 1.832933141521604813e+26 4.494292123774012104e+00
2.349999999999999947e-06 1.827693912369001273e+26 4.494101718982849825e+00
2.359999999999999851e-06 1.822117971470883402e+26 4.493795662261842239e+00
2.370000000000000179e-06 1.816577983032474760e+26 4.493493007773857961e+00
2.380000000000000083e-06 1.811569867373888424e+26 4.494116600879559442e+00
2.389999999999999987e-06 1.806209366423719028e+26 4.493817224862794113e+00
2.399999999999999891e-06 1.800773532039413209e+26 4.493525357062614134e+00
2.410000000000000219e-06 1.795736836669393818e+26 4.493359871532183192e+00
2.420000000000000123e-06 1.790368921193160549e+26 4.493074575048244590e+00
2.430000000000000028e-06 1.785166924965508622e+26 4.493565015552094977e+00
2.439999999999999932e-06 1.780227352196134260e+26 4.493409771370671102e+00
2.450000000000000260e-06 1.775068559998158401e+26 4.493134180941676270e+00
2.460000000000000164e-06 1.769833357851769533e+26 4.492862001861407606e+00
2.470000000000000068e-06 1.764976489801243033e+26 4.492778779095718100e+00
2.479999999999999972e-06 1.759942264016255991e+26 4.493248054251743007e+00
2.489999999999999877e-06 1.754803120476582349e+26 4.492985378717904155e+00
2.500000000000000205e-06 1.750050177271243373e+26 4.492848665541835373e+00
2.510000000000000109e-06 1.744973569337036018e+26 4.492591693125552510e+00
2.520000000000000013e-06 1.740025082643814564e+26 4.492400336295418128e+00
2.529999999999999917e-06 1.735501840628343304e+26 4.492982991588538866e+00
2.540000000000000245e-06 1.730516962987986747e+26 4.492734963274808813e+00
2.550000000000000149e-06 1.725562740839470907e+26 4.492489736694400548e+00
2.560000000000000054e-06 1.720986644502350584e+26 4.492370428313154029e+00
2.569999999999999958e-06 1.716080046098068703e+26 4.492194562840552408e+00
2.579999999999999862e-06 1.711353330075590579e+26 4.492669082042700879e+00
2.590000000000000190e-06 1.706970346728381851e+26 4.492558060043786661e+00
2.600000000000000094e-06 1.702163114139969094e+26 4.492327599255369286e+00
2.609999999999999998e-06 1.697385206794028073e+26 4.492100062034576347e+00
2.619999999999999903e-06 1.692631300688759424e+26 4.491900804069362430e+00
2.630000000000000230e-06 1.688251941314080594e+26 4.491798323252117697e+00
2.640000000000000135e-06 1.683683654507484711e+26 4.492359565952421363e+00
2.650000000000000039e-06 1.679126794290915677e+26 4.492143520991729311e+00
