# z (um)	 Electron density (m^-3)
0.000000000000000000e+00 6.203588693208585415e+27 5.315836154220407117e+00
1.000000000000000021e-08 5.854328072404894109e+27 5.310985288431194995e+00
2.000000000000000042e-08 5.542837477677322273e+27 5.307334899748805235e+00
3.000000000000000394e-08 5.262167605115730152e+27 5.304071766474663718e+00
4.000000000000000084e-08 5.005925315895925123e+27 5.301860243824911834e+00
4.999999999999999774e-08 4.772817847594135473e+27 5.299212279580452822e+00
6.000000000000000787e-08 4.558325344734345652e+27 5.296712229288756291e+00
7.000000000000000477e-08 4.361553173936123780e+27 5.294662978878317716e+00
8.000000000000000167e-08 4.178781377464651521e+27 5.292978312112228245e+00
8.999999999999999857e-08 4.008809269725982840e+27 5.291262811406990174e+00
9.999999999999999547e-08 3.849398589780884970e+27 5.289227459693671918e+00
1.100000000000000056e-07 3.701282924549232103e+27 5.287555883642602872e+00
1.200000000000000157e-07 3.563445963748230778e+27 5.285847168727931589e+00
1.299999999999999994e-07 3.434964202764707116e+27 5.284597851180441452e+00
1.400000000000000095e-07 3.314216351567322211e+27 5.283889246259967365e+00
1.499999999999999932e-07 3.201062222976837461e+27 5.282787083724065802e+00
1.600000000000000033e-07 3.095074657422521804e+27 5.282894627302785473e+00
1.700000000000000135e-07 2.994769491542699042e+27 5.282010887001129973e+00
1.799999999999999971e-07 2.899279664232387735e+27 5.281760841340649826e+00
1.900000000000000073e-07 2.810031392348727260e+27 5.280949869298683375e+00
1.999999999999999909e-07 2.725514118662262195e+27 5.279940883965665854e+00
2.100000000000000011e-07 2.646075578396129067e+27 5.279768326475174689e+00
2.200000000000000112e-07 2.571128362410860583e+27 5.279277909292747317e+00
2.299999999999999949e-07 2.500230535517380895e+27 5.279711746584587750e+00
2.400000000000000315e-07 2.433275777386028378e+27 5.278943841390023373e+00
2.499999999999999887e-07 2.369409791340807125e+27 5.278472863616526567e+00
2.599999999999999988e-07 2.309131274589721587e+27 5.277646474186578729e+00
2.700000000000000090e-07 2.251628401316971309e+27 5.277177003385786769e+00
2.800000000000000191e-07 2.197257131378774154e+27 5.276817195310327335e+00
2.900000000000000292e-07 2.144991109089218104e+27 5.276000737044912903e+00
2.999999999999999864e-07 2.095787712054584028e+27 5.275461678169905966e+00
3.099999999999999966e-07 2.048664175148270995e+27 5.275682955603798518e+00
3.200000000000000067e-07 2.003665120874856146e+27 5.275466373665740782e+00
3.300000000000000168e-07 1.960764988164336620e+27 5.274549972493833394e+00
3.400000000000000270e-07 1.920183275679513964e+27 5.273680110461412163e+00
3.499999999999999842e-07 1.880339745382238147e+27 5.273207256238441332e+00
3.599999999999999943e-07 1.842352926238503614e+27 5.272127178502086231e+00
3.700000000000000044e-07 1.805636749415446972e+27 5.271811524306195373e+00
3.800000000000000146e-07 1.770673270916388361e+27 5.270989513617551303e+00
3.900000000000000247e-07 1.736637071951267661e+27 5.270150402993721173e+00
3.999999999999999819e-07 1.703919425058804231e+27 5.270264311486885234e+00
4.099999999999999920e-07 1.671980020062987073e+27 5.270637405079433790e+00
4.200000000000000022e-07 1.641585215525685269e+27 5.270273242679436976e+00
4.300000000000000123e-07 1.611929480068840651e+27 5.270064884330360577e+00
4.400000000000000224e-07 1.584007219657882417e+27 5.270020859226927534e+00
4.500000000000000326e-07 1.557380136419973397e+27 5.269298877297982742e+00
4.599999999999999898e-07 1.532613672677658750e+27 5.268703539160280336e+00
4.699999999999999999e-07 1.510422311787278015e+27 5.268255034695831007e+00
4.800000000000000630e-07 1.491353321725117346e+27 5.267809681327978666e+00
4.899999999999999672e-07 1.483207619200660905e+27 5.266823205108128292e+00
4.999999999999999774e-07 1.453493911210864232e+27 5.265962028157487040e+00
5.099999999999999875e-07 1.425229719169578157e+27 5.264828095340380543e+00
5.199999999999999976e-07 1.397671132333240240e+27 5.264195694222625121e+00
5.300000000000000078e-07 1.371109201524967687e+27 5.263487266888295046e+00
5.400000000000000179e-07 1.345397343355466567e+27 5.262328733090458677e+00
5.500000000000000281e-07 1.320684091502622699e+27 5.261826231341648175e+00
5.600000000000000382e-07 1.296734903071342332e+27 5.260739119649835871e+00
5.700000000000000483e-07 1.273599055551795432e+27 5.259690284041937502e+00
5.800000000000000585e-07 1.250945110509329070e+27 5.259004679844053953e+00
5.899999999999999627e-07 1.229338739422509702e+27 5.258048767781287935e+00
5.999999999999999728e-07 1.208344397115312599e+27 5.256533038268898395e+00
6.099999999999999830e-07 1.187829583778428988e+27 5.256122761207853600e+00
6.199999999999999931e-07 1.168247577217673321e+27 5.255358768436694028e+00
6.300000000000000033e-07 1.148920288078161454e+27 5.254365397003740945e+00
6.400000000000000134e-07 1.130275226280268191e+27 5.254042437049174730e+00
6.500000000000000235e-07 1.112457636607169968e+27 5.253670080574378787e+00
6.600000000000000337e-07 1.094842368478269223e+27 5.252749750471268797e+00
6.700000000000000438e-07 1.077746724060458406e+27 5.251853566412856722e+00
6.800000000000000539e-07 1.061232769417883310e+27 5.251813020255433173e+00
6.900000000000000641e-07 1.045120124583650976e+27 5.251107808973943136e+00
6.999999999999999683e-07 1.029469219800093613e+27 5.250250919586289200e+00
7.099999999999999785e-07 1.014259405806319689e+27 5.249670977255692428e+00
7.199999999999999886e-07 9.994769980057431968e+26 5.248992332676577277e+00
7.299999999999999987e-07 9.851695745568794047e+26 5.249202195524222958e+00
7.400000000000000089e-07 9.711854157355123424e+26 5.248637335179258123e+00
7.500000000000000190e-07 9.575058074022265232e+26 5.247338053474209119e+00
7.600000000000000291e-07 9.442599895714167444e+26 5.246889616791110100e+00
7.700000000000000393e-07 9.311425087833298013e+26 5.246706310142895013e+00
7.800000000000000494e-07 9.185825641937229355e+26 5.246290646474133013e+00
7.900000000000000595e-07 9.063462301394949583e+26 5.245991423423336464e+00
7.999999999999999638e-07 8.941437309711714984e+26 5.245223137645708356e+00
8.099999999999999739e-07 8.825205385865724854e+26 5.244956939119824746e+00
8.199999999999999841e-07 8.709202169994596497e+26 5.244116678376411933e+00
8.299999999999999942e-07 8.598675012707865435e+26 5.243937049509061588e+00
8.400000000000000043e-07 8.488271084217360754e+26 5.243240145297441757e+00
8.500000000000000145e-07 8.383086389470049324e+26 5.242980841073332954e+00
8.600000000000000246e-07 8.277823647313979902e+26 5.242475483959608162e+00
8.700000000000000347e-07 8.177607709747978326e+26 5.242285489257011655e+00
8.800000000000000449e-07 8.077229202602921724e+26 5.241693824618012698e+00
8.900000000000000550e-07 7.979166870841253654e+26 5.241138835136857743e+00
9.000000000000000652e-07 7.883325512265392630e+26 5.240781373375619445e+00
9.099999999999999694e-07 7.791502293111653722e+26 5.239951507548386900e+00
9.199999999999999795e-07 7.700505893043346658e+26 5.240233320933485928e+00
9.299999999999999897e-07 7.610969489759324352e+26 5.239815377512470285e+00
9.399999999999999998e-07 7.523404497039120978e+26 5.239429839959767854e+00
9.500000000000000100e-07 7.437204399629893730e+26 5.238342860849445337e+00
9.600000000000001260e-07 7.353396794125434628e+26 5.237960164560792720e+00
9.700000000000000302e-07 7.271390208355442556e+26 5.237667399002960522e+00
9.799999999999999345e-07 7.191122648575322203e+26 5.237404360210875076e+00
9.900000000000000505e-07 7.112556180302219798e+26 5.236948763858336520e+00
9.999999999999999547e-07 7.035613167123415062e+26 5.236743387455620180e+00
1.010000000000000071e-06 6.960240047903750980e+26 5.236513999116644946e+00
1.019999999999999975e-06 6.885925330215076886e+26 5.235630070331113828e+00
1.030000000000000091e-06 6.813699801693370744e+26 5.235506521542123259e+00
1.039999999999999995e-06 6.742847389058857858e+26 5.235194940057530388e+00
1.050000000000000111e-06 6.672918072949474163e+26 5.234389191598451951e+00
1.060000000000000016e-06 6.603288593882364778e+26 5.234570355950531884e+00
1.069999999999999920e-06 6.536101616393421125e+26 5.233599360374684650e+00
1.080000000000000036e-06 6.470686208831456304e+26 5.233600704935897241e+00
1.089999999999999940e-06 6.406044508584752113e+26 5.232839873129471187e+00
1.100000000000000056e-06 6.341648241704220769e+26 5.233011903377231100e+00
1.109999999999999960e-06 6.279450424705513703e+26 5.232295884662931051e+00
1.120000000000000076e-06 6.218899515992861134e+26 5.232165046953745957e+00
1.129999999999999981e-06 6.157561790645684026e+26 5.231839167754841036e+00
1.140000000000000097e-06 6.099251590031620993e+26 5.231757063163025023e+00
1.150000000000000001e-06 6.040130732953059444e+26 5.231406919879513673e+00
1.160000000000000117e-06 5.983950177568411895e+26 5.231424556897627198e+00
1.170000000000000021e-06 5.928333359255431624e+26 5.230825872207864435e+00
1.179999999999999925e-06 5.872337378864578308e+26 5.230377329113198748e+00
1.190000000000000041e-06 5.819138624410885586e+26 5.230452648002295923e+00
1.199999999999999946e-06 5.765085092636863739e+26 5.230198614792520573e+00
1.210000000000000062e-06 5.713326532939996992e+26 5.229517357088713680e+00
1.219999999999999966e-06 5.661534148463924516e+26 5.230040388773866233e+00
1.230000000000000082e-06 5.611558460406525235e+26 5.229394222372386380e+00
1.239999999999999986e-06 5.561148695908891709e+26 5.229105614963287074e+00
1.250000000000000102e-06 5.513277117420162333e+26 5.229229373343130760e+00
1.260000000000000007e-06 5.464512363389623628e+26 5.229085103917382682e+00
1.270000000000000123e-06 5.416584914623727908e+26 5.228793710143580853e+00
1.280000000000000027e-06 5.370716253905883669e+26 5.228224646822785537e+00
1.289999999999999931e-06 5.324348643961518622e+26 5.227964879915788288e+00
1.300000000000000047e-06 5.279117942923054118e+26 5.228620828793826725e+00
1.309999999999999951e-06 5.235485737289322024e+26 5.228160662945510850e+00
1.320000000000000067e-06 5.191332733610796032e+26 5.227946005516053596e+00
1.329999999999999972e-06 5.147893081483090270e+26 5.227746189259095289e+00
1.340000000000000088e-06 5.106339554206541321e+26 5.227273070131730925e+00
1.349999999999999992e-06 5.064259384386581949e+26 5.227096048007416229e+00
1.360000000000000108e-06 5.022840258797656733e+26 5.226938736741205460e+00
1.370000000000000012e-06 4.983232172604005515e+26 5.226507763721475186e+00
1.380000000000000128e-06 4.943077666339746013e+26 5.226377382873546473e+00
1.390000000000000032e-06 4.903545778279583678e+26 5.226260452817602875e+00
1.399999999999999937e-06 4.864613876413844074e+26 5.226156332263513171e+00
1.410000000000000053e-06 4.827405092135146248e+26 5.225778234588807081e+00
1.419999999999999957e-06 4.789633711144224528e+26 5.225699348153555412e+00
1.430000000000000073e-06 4.752432705285451755e+26 5.225632955666903001e+00
1.439999999999999977e-06 4.715781116006718891e+26 5.225578363961872697e+00
1.450000000000000093e-06 4.679666028697809293e+26 5.225482114548410273e+00
1.459999999999999997e-06 4.645180229734657938e+26 5.225165455761598743e+00
1.470000000000000113e-06 4.610112878955088410e+26 5.225145767331279778e+00
1.480000000000000018e-06 4.575554574728324519e+26 5.225142805598942175e+00
1.490000000000000134e-06 4.541494763118314562e+26 5.225145021813855095e+00
1.500000000000000038e-06 4.507591698134900779e+26 5.224419781316934852e+00
1.509999999999999942e-06 4.474517265613738721e+26 5.224277599213163370e+00
1.520000000000000058e-06 4.441889066488924503e+26 5.224259333827265372e+00
1.529999999999999963e-06 4.409725198382409402e+26 5.224302757817313569e+00
1.540000000000000079e-06 4.379041060510809682e+26 5.224071970148842503e+00
1.549999999999999983e-06 4.347761348388860742e+26 5.224135338534041217e+00
1.560000000000000099e-06 4.316604885272272540e+26 5.223309600777384709e+00
1.570000000000000003e-06 4.286248081177370789e+26 5.223342545635821565e+00
1.580000000000000119e-06 4.256242849501899917e+26 5.223434780546048373e+00
1.590000000000000023e-06 4.226645219484212045e+26 5.223536431227500110e+00
1.599999999999999928e-06 4.197154222517633154e+26 5.222742953229833951e+00
1.610000000000000044e-06 4.168340939659304109e+26 5.222820023065475326e+00
1.619999999999999948e-06 4.139920454649728853e+26 5.222949361359901843e+00
1.630000000000000064e-06 4.111589780058818101e+26 5.222183243685286413e+00
1.639999999999999968e-06 4.083912546909983917e+26 5.222283037748996826e+00
1.650000000000000084e-06 4.056602798674922843e+26 5.222444915851800040e+00
1.659999999999999988e-06 4.029363110482636249e+26 5.221704927019476195e+00
1.670000000000000104e-06 4.002754906803885494e+26 5.221832174858229259e+00
1.680000000000000009e-06 3.976498036818003824e+26 5.222014460195131491e+00
1.690000000000000125e-06 3.949366833165903572e+26 5.221586398672595664e+00
1.700000000000000029e-06 3.923775592045585124e+26 5.221739484395265585e+00
1.709999999999999933e-06 3.898527837252332159e+26 5.221781638948376880e+00
1.720000000000000049e-06 3.873294700764019242e+26 5.221259955926223384e+00
1.729999999999999953e-06 3.848664825924349479e+26 5.221438186367601375e+00
1.740000000000000069e-06 3.824071590370209682e+26 5.220761905352375720e+00
1.749999999999999974e-06 3.800049228799164983e+26 5.221003665025064855e+00
1.760000000000000090e-06 3.776337623348099930e+26 5.221041184099673771e+00
1.769999999999999994e-06 3.751755064592854422e+26 5.220829486294500832e+00
1.780000000000000110e-06 3.728624718098004390e+26 5.220886898319177405e+00
1.790000000000000014e-06 3.705495875806401595e+26 5.220409249853445566e+00
1.800000000000000130e-06 3.682924574569992298e+26 5.220520969520685561e+00
1.810000000000000035e-06 3.660348404097215277e+26 5.220016400348527874e+00
1.819999999999999939e-06 3.638310257586283357e+26 5.220299823719760646e+00
1.830000000000000055e-06 3.615435212776172933e+26 5.219966640031755034e+00
1.839999999999999959e-06 3.593919229992141914e+26 5.220223586305771768e+00
1.850000000000000075e-06 3.572403387373524725e+26 5.219624767862523385e+00
1.859999999999999979e-06 3.551394492731729135e+26 5.219895440161431921e+00
1.870000000000000095e-06 3.529553748655595648e+26 5.219585637528248334e+00
1.880000000000000000e-06 3.509035827634285602e+26 5.219869147583008129e+00
1.890000000000000116e-06 3.488503074280199232e+26 5.219294488615174643e+00
1.900000000000000020e-06 3.468464377032479204e+26 5.219462350722862354e+00
1.909999999999999924e-06 3.447584249546140738e+26 5.219304509807510151e+00
1.920000000000000252e-06 3.427751677615761266e+26 5.218741703610302096e+00
1.930000000000000156e-06 3.408381365242360738e+26 5.219063290272708322e+00
1.940000000000000060e-06 3.388991074568094131e+26 5.218512298868055233e+00
1.949999999999999965e-06 3.369269497777071396e+26 5.219121256373687956e+00
1.959999999999999869e-06 3.350312108976152012e+26 5.218581246150368891e+00
1.970000000000000197e-06 3.331803490673898658e+26 5.218764031567999062e+00
1.980000000000000101e-06 3.312485552461265251e+26 5.218672737147255880e+00
1.990000000000000005e-06 3.294144353548872749e+26 5.218124036090146411e+00
1.999999999999999909e-06 3.276246552328428877e+26 5.218512771696221186e+00
2.010000000000000237e-06 3.257544345721792159e+26 5.218247895423542282e+00
2.020000000000000142e-06 3.239808265786831210e+26 5.217738768863280363e+00
2.030000000000000046e-06 3.222481801833840145e+26 5.218119831993285551e+00
2.039999999999999950e-06 3.204376587580359471e+26 5.217897848917094628e+00
2.049999999999999854e-06 3.187201293694953859e+26 5.217375306024331749e+00
2.060000000000000182e-06 3.169760573506242776e+26 5.218069778359437194e+00
2.070000000000000086e-06 3.152950639604601080e+26 5.217556726285289770e+00
2.079999999999999991e-06 3.136322056772309737e+26 5.217080989953071679e+00
2.089999999999999895e-06 3.119358521373972073e+26 5.217762347973225801e+00
2.100000000000000223e-06 3.103078295902006619e+26 5.217288911949879093e+00
2.110000000000000127e-06 3.086248653741301475e+26 5.217071055583627270e+00
2.120000000000000031e-06 3.070522929648984010e+26 5.217490293034369842e+00
2.129999999999999935e-06 3.054745969529274317e+26 5.217035801589218202e+00
2.139999999999999840e-06 3.038419148161235801e+26 5.216831436583527548e+00
2.150000000000000167e-06 3.023192759023845811e+26 5.217122658455855877e+00
2.160000000000000072e-06 3.007183541247042185e+26 5.217091541734944826e+00
2.169999999999999976e-06 2.992044437922728812e+26 5.216653133997424696e+00
2.179999999999999880e-06 2.976363725825365672e+26 5.216459676234350695e+00
2.190000000000000208e-06 2.961737140554123174e+26 5.216918074491013080e+00
2.200000000000000112e-06 2.947046025019616809e+26 5.216492840608367487e+00
2.210000000000000016e-06 2.931824795575704736e+26 5.216311058679477419e+00
2.219999999999999921e-06 2.917425957355668222e+26 5.215893750085338176e+00
2.230000000000000248e-06 2.902711532873254175e+26 5.216471100267570549e+00
2.240000000000000153e-06 2.888590809801521010e+26 5.216219321650997998e+00
2.250000000000000057e-06 2.873948268541254993e+26 5.216060090898006152e+00
2.259999999999999961e-06 2.860106188419210387e+26 5.215641368840595149e+00
2.269999999999999866e-06 2.845746620396242231e+26 5.215506092735345156e+00
2.280000000000000193e-06 2.832381841178655924e+26 5.215997599911666782e+00
2.290000000000000098e-06 2.818290234564046839e+26 5.215869034931255754e+00
2.300000000000000002e-06 2.804982625997716337e+26 5.215465743654909225e+00
2.309999999999999906e-06 2.791156341089554432e+26 5.215322891403396888e+00
2.320000000000000234e-06 2.778107165245885692e+26 5.214941071147086049e+00
2.330000000000000138e-06 2.764740926458499693e+26 5.215556842791282399e+00
2.340000000000000042e-06 2.751931928083411647e+26 5.215346226715936062e+00
2.349999999999999947e-06 2.738614738694967557e+26 5.215216699227557484e+00
2.359999999999999851e-06 2.726052206355931833e+26 5.214836596490659559e+00
2.370000000000000179e-06 2.712980022279792955e+26 5.214731513384281314e+00
2.380000000000000083e-06 2.700652744575550015e+26 5.214358668153809440e+00
2.389999999999999987e-06 2.688023524276641609e+26 5.214996199576119373e+00
2.399999999999999891e-06 2.675920680371755782e+26 5.214631533274552311e+00
2.410000000000000219e-06 2.663310641088703000e+26 5.214692305242387249e+00
2.420000000000000123e-06 2.650822248768390851e+26 5.214600504359397704e+00
2.430000000000000028e-06 2.639058587421143792e+26 5.214237961287808254e+00
2.439999999999999932e-06 2.626795900135654994e+26 5.214150371596270261e+00
2.450000000000000260e-06 2.615239755144208882e+26 5.213803128009892873e+00
2.460000000000000164e-06 2.603190867590681839e+26 5.213714720579412543e+00
2.470000000000000068e-06 2.592037387597897049e+26 5.214126413589835529e+00
2.479999999999999972e-06 2.580201408328710507e+26 5.214036639857971167e+00
2.489999999999999877e-06 2.568470555142366511e+26 5.213962056547763346e+00
2.500000000000000205e-06 2.557418725381091556e+26 5.213797391055454256e+00
2.510000000000000109e-06 2.545946347410508704e+26 5.213728001423493907e+00
2.520000000000000013e-06 2.535100291928790631e+26 5.213404516420612644e+00
2.529999999999999917e-06 2.523770397622285082e+26 5.213333163530156966e+00
2.540000000000000245e-06 2.513115050239375556e+26 5.213016782218282685e+00
2.550000000000000149e-06 2.501973709376519564e+26 5.212956300995779557e+00
2.560000000000000054e-06 2.490934782753124630e+26 5.212899057217558862e+00
2.569999999999999958e-06 2.480558255260985961e+26 5.212592411522127378e+00
2.579999999999999862e-06 2.469705372989972391e+26 5.212532835154748412e+00
2.590000000000000190e-06 2.459508422027291574e+26 5.212232931765076849e+00
2.600000000000000094e-06 2.449020262638504115e+26 5.212931033328972674e+00
2.609999999999999998e-06 2.438435190714834244e+26 5.212886684823016203e+00
2.619999999999999903e-06 2.428502905403424696e+26 5.212594229538002111e+00
2.630000000000000230e-06 2.418097513314861894e+26 5.212553907068444126e+00
2.640000000000000135e-06 2.407782460878169614e+26 5.212508174947634743e+00
2.650000000000000039e-06 2.398100211120566913e+26 5.212224072097551897e+00
