# z (um)	 Electron density (m^-3)
0.000000000000000000e+00 6.520554049737883957e+26 3.164346149749862835e+00
1.000000000000000021e-08 6.468247808183476287e+26 3.164210232233611642e+00
2.000000000000000042e-08 6.415385482969274774e+26 3.164023541790577987e+00
3.000000000000000394e-08 6.363390444960303662e+26 3.163987903388154166e+00
4.000000000000000084e-08 6.312909906328608912e+26 3.163650616461296750e+00
4.999999999999999774e-08 6.264357771989506331e+26 3.163607030949779464e+00
6.000000000000000787e-08 6.215147934774882386e+26 3.163446016985677289e+00
7.000000000000000477e-08 6.166833366975466691e+26 3.163210806653625973e+00
8.000000000000000167e-08 6.119756436522777158e+26 3.163008667651979966e+00
8.999999999999999857e-08 6.073085385511960437e+26 3.162834631427438037e+00
9.999999999999999547e-08 6.028692040027592816e+26 3.162776230773146846e+00
1.100000000000000056e-07 5.984092777082346315e+26 3.162410909255553459e+00
1.200000000000000157e-07 5.940146837186464292e+26 3.162193051931058374e+00
1.299999999999999994e-07 5.896490643663784801e+26 3.162128835358275936e+00
1.400000000000000095e-07 5.853595208435080228e+26 3.161939477214008143e+00
1.499999999999999932e-07 5.813255518109030226e+26 3.161712556938327978e+00
1.600000000000000033e-07 5.772118241704238850e+26 3.161482914581728032e+00
1.700000000000000135e-07 5.731641087095785624e+26 3.161250481261509648e+00
1.799999999999999971e-07 5.691422528303335672e+26 3.161050260707034543e+00
1.900000000000000073e-07 5.651783969018084417e+26 3.160978156590183108e+00
1.999999999999999909e-07 5.612716715497054072e+26 3.160923561291959949e+00
2.100000000000000011e-07 5.574297445248549170e+26 3.160683409642110586e+00
2.200000000000000112e-07 5.537898341852328717e+26 3.160476324276744187e+00
2.299999999999999949e-07 5.501035820661484620e+26 3.160232692976281399e+00
2.400000000000000315e-07 5.465148342460542710e+26 3.159816304623207728e+00
2.499999999999999887e-07 5.428923128010366784e+26 3.159751394719898521e+00
2.599999999999999988e-07 5.393681030857591137e+26 3.159502560800240278e+00
2.700000000000000090e-07 5.358953997539633554e+26 3.159252674142340123e+00
2.800000000000000191e-07 5.324286912822157057e+26 3.159184150738889141e+00
2.900000000000000292e-07 5.291892415249769465e+26 3.158932145151039261e+00
2.999999999999999864e-07 5.258641563246305481e+26 3.158679743847814247e+00
3.099999999999999966e-07 5.225840855598312371e+26 3.158429455541682973e+00
3.200000000000000067e-07 5.193529702985307567e+26 3.158175263711962444e+00
3.300000000000000168e-07 5.161243215244189890e+26 3.158102387599789562e+00
3.400000000000000270e-07 5.130236953141992514e+26 3.157664625736022579e+00
3.499999999999999842e-07 5.098450755210074546e+26 3.157590490628499946e+00
3.599999999999999943e-07 5.067896697949534876e+26 3.157334827834989532e+00
3.700000000000000044e-07 5.037737880175699217e+26 3.157074156905814277e+00
3.800000000000000146e-07 5.009262259053513440e+26 3.156817759208807139e+00
3.900000000000000247e-07 4.979501909121496755e+26 3.156742828918971622e+00
3.999999999999999819e-07 4.950531284057323444e+26 3.156478852122800660e+00
4.099999999999999920e-07 4.921954712835926233e+26 3.156223065863797306e+00
4.200000000000000022e-07 4.893737040661472971e+26 3.155956916363506171e+00
4.300000000000000123e-07 4.865491631793529824e+26 3.155882003767944699e+00
4.400000000000000224e-07 4.838395136382635200e+26 3.155433682103136128e+00
4.500000000000000326e-07 4.810855133976831129e+26 3.155359307161179405e+00
4.599999999999999898e-07 4.784364707085756338e+26 3.155052936431947508e+00
4.699999999999999999e-07 4.757894120271979222e+26 3.154799155376910580e+00
4.800000000000000630e-07 4.731742343880370891e+26 3.154528856094017453e+00
4.899999999999999672e-07 4.705174767822367095e+26 3.154456082241389403e+00
4.999999999999999774e-07 4.679659381305065317e+26 3.154185000318242782e+00
5.099999999999999875e-07 4.655934068766232795e+26 3.153875375673893533e+00
5.199999999999999976e-07 4.630644598129404363e+26 3.153804228222174544e+00
5.300000000000000078e-07 4.606414925418691311e+26 3.153352517589620874e+00
5.400000000000000179e-07 4.582098243974036363e+26 3.153079548770180374e+00
5.500000000000000281e-07 4.557695614166822793e+26 3.153010686402151208e+00
5.600000000000000382e-07 4.534253715153567333e+26 3.152700856511501559e+00
5.700000000000000483e-07 4.510789148185415670e+26 3.152427637522640769e+00
5.800000000000000585e-07 4.487228120174658858e+26 3.152361314198089293e+00
5.899999999999999627e-07 4.464603605719186787e+26 3.152051669662665478e+00
5.999999999999999728e-07 4.441947023114543511e+26 3.151778840147958061e+00
6.099999999999999830e-07 4.419550326132991130e+26 3.151505851390504098e+00
6.199999999999999931e-07 4.397408506856207116e+26 3.151232787288817061e+00
6.300000000000000033e-07 4.375112204248141885e+26 3.151134695502602057e+00
6.400000000000000134e-07 4.353466257162294887e+26 3.150862856835839221e+00
6.500000000000000235e-07 4.332060468451681376e+26 3.150591098141064528e+00
6.600000000000000337e-07 4.311174640458486719e+26 3.150282532247683065e+00
6.700000000000000438e-07 4.290234693185140898e+26 3.150011135091931980e+00
6.800000000000000539e-07 4.269453295608071649e+26 3.149881047617811181e+00
6.900000000000000641e-07 4.248964752466675763e+26 3.149610200350295930e+00
6.999999999999999683e-07 4.228338877327354662e+26 3.149557704697500515e+00
7.099999999999999785e-07 4.208562538114945871e+26 3.149251830534235630e+00
7.199999999999999886e-07 4.188719873214916350e+26 3.148983142932259227e+00
7.299999999999999987e-07 4.169359156893820180e+26 3.148678229604132461e+00
7.400000000000000089e-07 4.149928099325426566e+26 3.148410482322719250e+00
7.500000000000000190e-07 4.130360150061647261e+26 3.148320653298857241e+00
7.600000000000000291e-07 4.111599369768124404e+26 3.148017393800023100e+00
7.700000000000000393e-07 4.092762408377575296e+26 3.147751307297151246e+00
7.800000000000000494e-07 4.074077754799443862e+26 3.147449408501541424e+00
7.900000000000000595e-07 4.055289138664222973e+26 3.147361660707385767e+00
7.999999999999999638e-07 4.037283374850583297e+26 3.147061186432894786e+00
8.099999999999999739e-07 4.019194790958323959e+26 3.146797772542629712e+00
8.199999999999999841e-07 4.001221088948898927e+26 3.146675675885491241e+00
8.299999999999999942e-07 3.983490653361897750e+26 3.146413788266849032e+00
8.400000000000000043e-07 3.966194463139261520e+26 3.146116597767930401e+00
8.500000000000000145e-07 3.948488632242190919e+26 3.146032921676471528e+00
8.600000000000000246e-07 3.931533340088815001e+26 3.145737556024771120e+00
8.700000000000000347e-07 3.914825896737047639e+26 3.145247926894215507e+00
8.800000000000000449e-07 3.897881377867792728e+26 3.145130310020465281e+00
8.900000000000000550e-07 3.881164132731574893e+26 3.144873211507714483e+00
9.000000000000000652e-07 3.864859117192536565e+26 3.144581365169135001e+00
9.099999999999999694e-07 3.847175881819111472e+26 3.144503031923327363e+00
9.199999999999999795e-07 3.830895941716763339e+26 3.144213326279348131e+00
9.299999999999999897e-07 3.814494856063724842e+26 3.144136220279795335e+00
9.399999999999999998e-07 3.799131751004887152e+26 3.143612312066654368e+00
9.500000000000000100e-07 3.783027650407390036e+26 3.143536636823707653e+00
9.600000000000001260e-07 3.767622412296028455e+26 3.143250827626013155e+00
9.700000000000000302e-07 3.752052459144080493e+26 3.143141908555454389e+00
9.799999999999999345e-07 3.736686362797627607e+26 3.142893545348999673e+00
9.900000000000000505e-07 3.721723682145299736e+26 3.142546899122633075e+00
9.999999999999999547e-07 3.706634194158819529e+26 3.142300393999385655e+00
1.010000000000000071e-06 3.691619591643158704e+26 3.142195445323720193e+00
1.019999999999999975e-06 3.677039230602332885e+26 3.141916283359560857e+00
1.030000000000000091e-06 3.662376491879945039e+26 3.141605727474088727e+00
1.039999999999999995e-06 3.648056737011846053e+26 3.141328666221102850e+00
1.050000000000000111e-06 3.633333704268115942e+26 3.141262630017188862e+00
1.060000000000000016e-06 3.618083505413451102e+26 3.140988563592681970e+00
1.069999999999999920e-06 3.604168425403722693e+26 3.140645071000760957e+00
1.080000000000000036e-06 3.589824519218479218e+26 3.140581874663538109e+00
1.089999999999999940e-06 3.576124150399609680e+26 3.140310459023195833e+00
1.100000000000000056e-06 3.562566085459717756e+26 3.139968001489747973e+00
1.109999999999999960e-06 3.548868871937680246e+26 3.139732954568446921e+00
1.120000000000000076e-06 3.535227700212813206e+26 3.139639866437334614e+00
1.129999999999999981e-06 3.522014153658577975e+26 3.139298792364853430e+00
1.140000000000000097e-06 3.508659794251634148e+26 3.139067085438689286e+00
1.150000000000000001e-06 3.495357852141796552e+26 3.138977448472948240e+00
1.160000000000000117e-06 3.482476986545794426e+26 3.138638070735410235e+00
1.170000000000000021e-06 3.468578653334768152e+26 3.138410578909099691e+00
1.179999999999999925e-06 3.455605727057121281e+26 3.138324479042013504e+00
1.190000000000000041e-06 3.443045684719011646e+26 3.137986990043304836e+00
1.199999999999999946e-06 3.429802675224157146e+26 3.137936533133583339e+00
1.210000000000000062e-06 3.417420440465893507e+26 3.137679584545400413e+00
1.219999999999999966e-06 3.405166237777292982e+26 3.137344135515887089e+00
1.230000000000000082e-06 3.392707115908672284e+26 3.137264015650229609e+00
1.239999999999999986e-06 3.380435065346535929e+26 3.136962313187932505e+00
1.250000000000000102e-06 3.368448197390788064e+26 3.136710487593656005e+00
1.260000000000000007e-06 3.355740269742802863e+26 3.136377870558586078e+00
1.270000000000000123e-06 3.343674159755326269e+26 3.136302694122442336e+00
1.280000000000000027e-06 3.331489928204211148e+26 3.136261058477961328e+00
1.289999999999999931e-06 3.320181372641822915e+26 3.135755975429263209e+00
1.300000000000000047e-06 3.308394932727879092e+26 3.135684318953523508e+00
1.309999999999999951e-06 3.296997973224146955e+26 3.135354423407156865e+00
1.320000000000000067e-06 3.285183769624636684e+26 3.135317248457504924e+00
1.329999999999999972e-06 3.273140217348637141e+26 3.134989305401191029e+00
1.340000000000000088e-06 3.261979666855863494e+26 3.134748757776713024e+00
1.349999999999999992e-06 3.250688917523583370e+26 3.134421345887126620e+00
1.360000000000000108e-06 3.239228142308529624e+26 3.134388601364581195e+00
1.370000000000000012e-06 3.228351480864588323e+26 3.134062316573604345e+00
1.380000000000000128e-06 3.217264102377188536e+26 3.134000252203221315e+00
1.390000000000000032e-06 3.206551023366695561e+26 3.133675379750575640e+00
1.399999999999999937e-06 3.194821384676643472e+26 3.133616742957183288e+00
1.410000000000000053e-06 3.184326217464721763e+26 3.133151046689161667e+00
1.419999999999999957e-06 3.173562960939925611e+26 3.133093801627779840e+00
1.430000000000000073e-06 3.163166603637568044e+26 3.132771830391736678e+00
1.439999999999999977e-06 3.152558687964224454e+26 3.132717061957606131e+00
1.450000000000000093e-06 3.142315095329041181e+26 3.132396682331075155e+00
1.459999999999999997e-06 3.131661926038407662e+26 3.132375004573067834e+00
1.470000000000000113e-06 3.120782154274374490e+26 3.132057075731112139e+00
1.480000000000000018e-06 3.110764572922273651e+26 3.131738372901047729e+00
1.490000000000000134e-06 3.100299656868670392e+26 3.131689894144952913e+00
1.500000000000000038e-06 3.090426120916255422e+26 3.131372887472702704e+00
1.509999999999999942e-06 3.080340126718133852e+26 3.131326849708829130e+00
1.520000000000000058e-06 3.070607671454477156e+26 3.131011572138050703e+00
1.529999999999999963e-06 3.059698079007039432e+26 3.130998778125555937e+00
1.540000000000000079e-06 3.050106205675186265e+26 3.130685044994151234e+00
1.549999999999999983e-06 3.040581408441912016e+26 3.130371589587099823e+00
1.560000000000000099e-06 3.030843649665937260e+26 3.130331617911877640e+00
1.570000000000000003e-06 3.021452037393082308e+26 3.130019921690979423e+00
1.580000000000000119e-06 3.011848303156713731e+26 3.129982293418906103e+00
1.590000000000000023e-06 3.001830543496719100e+26 3.129673437231210276e+00
1.599999999999999928e-06 2.992447619817092655e+26 3.129392901897031010e+00
1.610000000000000044e-06 2.983040368806232868e+26 3.129358844054358268e+00
1.619999999999999948e-06 2.973971772685621371e+26 3.129050874156254380e+00
1.630000000000000064e-06 2.964740190992235466e+26 3.128743294085499116e+00
1.639999999999999968e-06 2.954775085604009225e+26 3.128714011786167593e+00
1.650000000000000084e-06 2.945891628384175764e+26 3.128408227877669923e+00
1.659999999999999988e-06 2.937067143984961621e+26 3.128102838031141086e+00
1.670000000000000104e-06 2.928029129841503034e+26 3.128076076751781009e+00
1.680000000000000009e-06 2.919322008825374766e+26 3.127772541581457233e+00
1.690000000000000125e-06 2.910672932609962039e+26 3.127469456097039302e+00
1.700000000000000029e-06 2.900897484980830972e+26 3.127475406024802673e+00
1.709999999999999933e-06 2.892365103842394418e+26 3.127174041254625170e+00
1.720000000000000049e-06 2.883888348455880680e+26 3.126873122662576332e+00
1.729999999999999953e-06 2.874965578202878924e+26 3.127025760719646996e+00
1.740000000000000069e-06 2.866600248952767093e+26 3.126726696484429358e+00
1.749999999999999974e-06 2.857568453626563818e+26 3.126429274548302217e+00
1.760000000000000090e-06 2.849046963346135841e+26 3.126413034303696215e+00
1.769999999999999994e-06 2.840845146363418660e+26 3.126116306863186534e+00
1.780000000000000110e-06 2.832480868980742132e+26 3.125820075571063672e+00
1.790000000000000014e-06 2.823671737919272115e+26 3.125525521177171751e+00
1.800000000000000130e-06 2.815364182735771196e+26 3.125514009594324794e+00
1.810000000000000035e-06 2.807143917740037029e+26 3.125392304963971579e+00
1.819999999999999939e-06 2.799202142293400504e+26 3.125098917473284388e+00
1.830000000000000055e-06 2.791310539903874822e+26 3.124806064529086047e+00
1.839999999999999959e-06 2.782504896633707084e+26 3.124800495167122438e+00
1.850000000000000075e-06 2.774714176148376961e+26 3.124509540013622466e+00
1.859999999999999979e-06 2.766971897127557701e+26 3.124219117177291949e+00
1.870000000000000095e-06 2.758882412919317757e+26 3.124127326821241279e+00
1.880000000000000000e-06 2.750977990218998461e+26 3.124125072340639075e+00
1.890000000000000116e-06 2.742688266652405203e+26 3.123838229577966086e+00
1.900000000000000020e-06 2.735139000538170556e+26 3.123550688687810606e+00
1.909999999999999924e-06 2.727635705071937347e+26 3.123263706945621276e+00
1.920000000000000252e-06 2.719493741306528095e+26 3.123437865170959338e+00
1.930000000000000156e-06 2.711398204839092516e+26 3.123154044253483530e+00
1.940000000000000060e-06 2.704032995045968021e+26 3.122869502014984811e+00
1.949999999999999965e-06 2.696711614104843140e+26 3.122585518732188703e+00
1.959999999999999869e-06 2.688961308920986430e+26 3.122763916028599152e+00
1.970000000000000197e-06 2.681728081490450613e+26 3.122481816174405900e+00
1.980000000000000101e-06 2.673863163499722008e+26 3.122201581844675999e+00
1.990000000000000005e-06 2.666717395855236486e+26 3.121920629608814668e+00
1.999999999999999909e-06 2.659397895938310855e+26 3.121812024749865522e+00
2.010000000000000237e-06 2.652085137852566920e+26 3.121824145028721631e+00
2.020000000000000142e-06 2.644398522255158139e+26 3.121546971368745815e+00
2.030000000000000046e-06 2.637422234978500240e+26 3.121269054281894828e+00
2.039999999999999950e-06 2.630272797588897875e+26 3.121163452411955586e+00
2.049999999999999854e-06 2.623377887274753926e+26 3.120886751932533620e+00
2.060000000000000182e-06 2.615663200249681542e+26 3.120611995928448401e+00
2.070000000000000086e-06 2.608550369882711605e+26 3.120778471228141004e+00
2.079999999999999991e-06 2.601776157261247393e+26 3.120504296375400166e+00
2.089999999999999895e-06 2.595040860776917905e+26 3.120230701974705756e+00
2.100000000000000223e-06 2.587480722988897556e+26 3.120130643707712537e+00
2.110000000000000127e-06 2.580823988044382872e+26 3.119858277146891012e+00
2.120000000000000031e-06 2.574204859751445103e+26 3.119586501348597718e+00
2.129999999999999935e-06 2.567169569821757294e+26 3.119783074255029209e+00
2.139999999999999840e-06 2.559979757350178800e+26 3.119514479159199105e+00
2.150000000000000167e-06 2.553474278012193444e+26 3.119245079358982764e+00
2.160000000000000072e-06 2.546798110958738985e+26 3.119147762961291370e+00
2.169999999999999976e-06 2.540365411046686889e+26 3.118879595855219122e+00
2.179999999999999880e-06 2.533328913431354667e+26 3.118613421062226276e+00
2.190000000000000208e-06 2.526763479379863678e+26 3.118517899820961947e+00
2.200000000000000112e-06 2.520438699194646141e+26 3.118251599033628807e+00
2.210000000000000016e-06 2.513715456062524071e+26 3.118284965628346672e+00
2.219999999999999921e-06 2.506623779741709854e+26 3.118193254732879893e+00
2.230000000000000248e-06 2.500404554392176127e+26 3.117929294454190980e+00
2.240000000000000153e-06 2.494218854008177109e+26 3.117665911440685278e+00
2.250000000000000057e-06 2.487236034832734181e+26 3.117575998322300812e+00
2.259999999999999961e-06 2.481270451705219448e+26 3.117292152979167952e+00
2.269999999999999866e-06 2.474984045296944444e+26 3.117202062344802904e+00
2.280000000000000193e-06 2.468932232717070481e+26 3.116941303593471879e+00
2.290000000000000098e-06 2.462291401954681862e+26 3.116682609239668000e+00
2.300000000000000002e-06 2.455869822762584521e+26 3.116896415767814954e+00
2.309999999999999906e-06 2.449917463503421486e+26 3.116638006678287720e+00
2.320000000000000234e-06 2.443798338330617106e+26 3.116551549376776364e+00
2.330000000000000138e-06 2.437294770821067623e+26 3.116295870880783525e+00
2.340000000000000042e-06 2.431439524917946218e+26 3.116039320113212163e+00
2.349999999999999947e-06 2.425231892821394142e+26 3.115954741770894820e+00
2.359999999999999851e-06 2.418828044907921007e+26 3.115700920154476972e+00
2.370000000000000179e-06 2.413017286834586984e+26 3.115597021375859921e+00
2.380000000000000083e-06 2.407285719645021209e+26 3.115343025740956673e+00
2.389999999999999987e-06 2.401388529359019523e+26 3.115260886126865358e+00
2.399999999999999891e-06 2.395111926034194793e+26 3.115009649482649134e+00
2.410000000000000219e-06 2.389276242482215324e+26 3.114928717986025664e+00
2.420000000000000123e-06 2.383664323989836222e+26 3.114677244227581188e+00
2.430000000000000028e-06 2.377286975767436966e+26 3.114599010541760471e+00
2.439999999999999932e-06 2.371733592832467829e+26 3.114348770014750745e+00
2.450000000000000260e-06 2.366208230105922538e+26 3.114099084380866245e+00
2.460000000000000164e-06 2.360432920175202722e+26 3.114308715418184992e+00
2.470000000000000068e-06 2.354369228838548825e+26 3.114062122919176279e+00
2.479999999999999972e-06 2.348737734623560049e+26 3.113985844926376867e+00
2.489999999999999877e-06 2.343325281878835371e+26 3.113738915633286197e+00
2.500000000000000205e-06 2.336979243065888752e+26 3.113665317802601695e+00
2.510000000000000109e-06 2.331622388057895173e+26 3.113419567253896236e+00
2.520000000000000013e-06 2.326102166345430570e+26 3.113345602365688691e+00
2.529999999999999917e-06 2.320212123539709847e+26 3.113102583825456460e+00
2.540000000000000245e-06 2.314886878417464044e+26 3.113011119838988261e+00
2.550000000000000149e-06 2.309636283626357293e+26 3.112767821583554362e+00
2.560000000000000054e-06 2.304223810662672748e+26 3.112696339548730151e+00
2.569999999999999958e-06 2.298445080891014882e+26 3.112455878857884439e+00
2.579999999999999862e-06 2.293086845678610075e+26 3.112385686409275376e+00
2.590000000000000190e-06 2.287755193670542586e+26 3.112316076225565720e+00
2.600000000000000094e-06 2.282059247302993734e+26 3.112077632084417456e+00
2.609999999999999998e-06 2.276918074424971732e+26 3.111991355177738061e+00
2.619999999999999903e-06 2.271850196778857476e+26 3.111752642650497780e+00
2.630000000000000230e-06 2.266049721777905451e+26 3.111687190459994756e+00
2.640000000000000135e-06 2.260858566409592264e+26 3.111449727136063270e+00
2.650000000000000039e-06 2.255681907112609866e+26 3.111383937931261556e+00
