# z (um)	 Electron density (m^-3)
0.000000000000000000e+00 3.086137113893738594e+26 4.563867611435257210e+00
1.000000000000000021e-08 3.071533612984183771e+26 4.563543414461032732e+00
2.000000000000000042e-08 3.057070531752540948e+26 4.563225500077729535e+00
3.000000000000000394e-08 3.042271642731016338e+26 4.562880289890188124e+00
4.000000000000000084e-08 3.028083160776400671e+26 4.562569470394972626e+00
4.999999999999999774e-08 3.014031756558614211e+26 4.562273092101252203e+00
6.000000000000000787e-08 3.000113163022555237e+26 4.561979954489360445e+00
7.000000000000000477e-08 2.985689946953864584e+26 4.561609034189173073e+00
8.000000000000000167e-08 2.972203995763446293e+26 4.561328815754878363e+00
8.999999999999999857e-08 2.958674023562242338e+26 4.561057600449753835e+00
9.999999999999999547e-08 2.944646228096591150e+26 4.560753043202917745e+00
1.100000000000000056e-07 2.931368367268618218e+26 4.560491138203884631e+00
1.200000000000000157e-07 2.918212432682072005e+26 4.560235496110804476e+00
1.299999999999999994e-07 2.904730949230789060e+26 4.559951725999714434e+00
1.400000000000000095e-07 2.891816691262843840e+26 4.559708655356051743e+00
1.499999999999999932e-07 2.879019790101513048e+26 4.559471957062715575e+00
1.600000000000000033e-07 2.866338545619072825e+26 4.559244747616256532e+00
1.700000000000000135e-07 2.853170079335523971e+26 4.558981945334861230e+00
1.799999999999999971e-07 2.840885870708291820e+26 4.558764786210716125e+00
1.900000000000000073e-07 2.828546116656571190e+26 4.558556833263406993e+00
1.999999999999999909e-07 2.815723616994363424e+26 4.558312221039839685e+00
2.100000000000000011e-07 2.803608435053782130e+26 4.558121463686118702e+00
2.200000000000000112e-07 2.791010614110197366e+26 4.557888545421968196e+00
2.299999999999999949e-07 2.779108556482767947e+26 4.557705899130468197e+00
2.400000000000000315e-07 2.767475645178033232e+26 4.557526733112644557e+00
2.499999999999999887e-07 2.755202310658655045e+26 4.557311488548764444e+00
2.599999999999999988e-07 2.743615502660941195e+26 4.557189242843800336e+00
2.700000000000000090e-07 2.732126669312856335e+26 4.557027546203933355e+00
2.800000000000000191e-07 2.720165984381187133e+26 4.556832376830719511e+00
2.900000000000000292e-07 2.708824483225808470e+26 4.556051060376759665e+00
2.999999999999999864e-07 2.697633057997148912e+26 4.555906512809309028e+00
3.099999999999999966e-07 2.685976587676005367e+26 4.555731540056370932e+00
3.200000000000000067e-07 2.674977695088177750e+26 4.555598313999599469e+00
3.300000000000000168e-07 2.663513872599416790e+26 4.555429765574722012e+00
3.400000000000000270e-07 2.652863859410641290e+26 4.555308278826282198e+00
3.499999999999999842e-07 2.642146850815016901e+26 4.555234136195512207e+00
3.599999999999999943e-07 2.630757278196275371e+26 4.554444077706935268e+00
3.700000000000000044e-07 2.620219530575207095e+26 4.554338322078248957e+00
3.800000000000000146e-07 2.609226817460391024e+26 4.554199771074338265e+00
3.900000000000000247e-07 2.599025747870285952e+26 4.554109246414801859e+00
3.999999999999999819e-07 2.588755102638765902e+26 4.554057657211508570e+00
4.099999999999999920e-07 2.577823020303855358e+26 4.553292546996861034e+00
4.200000000000000022e-07 2.567721418409156689e+26 4.553218204290664595e+00
4.300000000000000123e-07 2.557172495700043440e+26 4.553106570572222012e+00
4.400000000000000224e-07 2.547397713345590522e+26 4.553041196335566809e+00
4.500000000000000326e-07 2.537348808296271021e+26 4.552379514465381583e+00
4.599999999999999898e-07 2.527052364074558728e+26 4.552280902430259069e+00
4.699999999999999999e-07 2.517367889190821298e+26 4.552238867723372273e+00
4.800000000000000630e-07 2.507238027024266912e+26 4.552147887554591321e+00
4.899999999999999672e-07 2.497673127229945069e+26 4.551507288425812980e+00
4.999999999999999774e-07 2.487705942274536770e+26 4.551430335760148438e+00
5.099999999999999875e-07 2.478338103669618023e+26 4.551410709851374747e+00
5.199999999999999976e-07 2.468529908406745520e+26 4.551344300670449705e+00
5.300000000000000078e-07 2.459276578198591052e+26 4.550723285181650368e+00
5.400000000000000179e-07 2.450133162270741908e+26 4.550716114874068907e+00
5.500000000000000281e-07 2.440558277064525845e+26 4.550668267918586807e+00
5.600000000000000382e-07 2.431373684609866542e+26 4.550056167255688067e+00
5.700000000000000483e-07 2.421946492488250809e+26 4.550014448487287311e+00
5.800000000000000585e-07 2.413251733140351568e+26 4.550031286850891199e+00
5.899999999999999627e-07 2.403779665696200830e+26 4.549354046143379016e+00
5.999999999999999728e-07 2.395072863790598711e+26 4.549407471229385713e+00
6.099999999999999830e-07 2.385937723780325367e+26 4.549387051918690972e+00
6.199999999999999931e-07 2.377175575451223955e+26 4.548773006715746803e+00
6.300000000000000033e-07 2.368335746988111973e+26 4.548789631483052709e+00
6.400000000000000134e-07 2.359899911852891977e+26 4.548833595235462823e+00
6.500000000000000235e-07 2.350857789339683994e+26 4.548211013890188781e+00
6.600000000000000337e-07 2.342552361466149439e+26 4.548261480279138347e+00
6.700000000000000438e-07 2.333830567510335969e+26 4.548271690218159691e+00
6.800000000000000539e-07 2.325626962648353297e+26 4.547714163715809832e+00
6.900000000000000641e-07 2.317035932282420466e+26 4.547727347749299653e+00
6.999999999999999683e-07 2.308991525533202638e+26 4.547800200943849624e+00
7.099999999999999785e-07 2.300352799455415878e+26 4.547202977988388461e+00
7.199999999999999886e-07 2.292431965838154565e+26 4.547282982477337754e+00
7.299999999999999987e-07 2.284076474768113075e+26 4.546697868527197706e+00
7.400000000000000089e-07 2.276278762898550815e+26 4.546791613445959612e+00
7.500000000000000190e-07 2.268075219220295922e+26 4.546836723178836692e+00
7.600000000000000291e-07 2.260223432812882378e+26 4.546313964518048145e+00
7.700000000000000393e-07 2.252140746519358647e+26 4.546365911628231338e+00
7.800000000000000494e-07 2.244560649059031810e+26 4.545858815728045954e+00
7.900000000000000595e-07 2.236598253215427534e+26 4.545920092207567542e+00
7.999999999999999638e-07 2.228985593658902780e+26 4.545416351650711562e+00
8.099999999999999739e-07 2.221140733699307839e+26 4.545490179857883284e+00
8.199999999999999841e-07 2.213959837800002392e+26 4.545618878913911587e+00
8.299999999999999942e-07 2.206061275220492402e+26 4.545073641392063379e+00
8.400000000000000043e-07 2.198388278628812068e+26 4.545159553166342903e+00
8.500000000000000145e-07 2.191056085135086324e+26 4.544674893827735929e+00
8.600000000000000246e-07 2.183494157706165358e+26 4.544764996887730391e+00
8.700000000000000347e-07 2.176414614785717976e+26 4.544289057002627530e+00
8.800000000000000449e-07 2.168963256289085627e+26 4.544389286815683882e+00
8.900000000000000550e-07 2.161841165519013403e+26 4.543915313123517485e+00
9.000000000000000652e-07 2.154495849952453372e+26 4.544026658915281125e+00
9.099999999999999694e-07 2.147647774280670894e+26 4.544212845598729622e+00
9.199999999999999795e-07 2.140383101118900127e+26 4.543679108022740998e+00
9.299999999999999897e-07 2.133635310327241554e+26 4.543872519803223042e+00
9.399999999999999998e-07 2.126327401537334804e+26 4.543345089641332102e+00
9.500000000000000100e-07 2.119243136298947716e+26 4.543491202281523478e+00
9.600000000000001260e-07 2.112619021674243902e+26 4.543026953063324491e+00
9.700000000000000302e-07 2.105634827911293689e+26 4.543180775259468618e+00
9.799999999999999345e-07 2.098961870715926084e+26 4.542723454870243316e+00
9.900000000000000505e-07 2.092076463146528438e+26 4.542885275159726177e+00
9.999999999999999547e-07 2.085499513371885191e+26 4.542435982757578650e+00
1.010000000000000071e-06 2.078856488373919748e+26 4.542606820893553277e+00
1.019999999999999975e-06 2.071948652521864587e+26 4.542110275835453237e+00
1.030000000000000091e-06 2.065680226927578242e+26 4.542343759111055590e+00
1.039999999999999995e-06 2.058872590534917791e+26 4.541874794301464568e+00
1.050000000000000111e-06 2.052526296318277798e+26 4.541440002485820138e+00
1.060000000000000016e-06 2.046119555972738886e+26 4.541636014439930591e+00
1.069999999999999920e-06 2.039862120475080388e+26 4.541212435414464288e+00
1.080000000000000036e-06 2.033401068574848706e+26 4.541411515689843803e+00
1.089999999999999940e-06 2.026815932012606342e+26 4.540939376023651164e+00
1.100000000000000056e-06 2.021001626709872619e+26 4.541201853770919783e+00
1.109999999999999960e-06 2.014509117655985474e+26 4.540754278551018430e+00
1.120000000000000076e-06 2.008628943151240012e+26 4.541004535800055031e+00
1.129999999999999981e-06 2.002222297812736484e+26 4.540562954374048665e+00
1.140000000000000097e-06 1.996015028215718814e+26 4.540767281603099725e+00
1.150000000000000001e-06 1.990243641923395317e+26 4.540384037857872812e+00
1.160000000000000117e-06 1.983960184752027036e+26 4.539935397920928928e+00
1.170000000000000021e-06 1.978283150904604297e+26 4.540215736867953211e+00
1.179999999999999925e-06 1.972086194663255265e+26 4.539789371710703847e+00
1.190000000000000041e-06 1.966224380513128910e+26 4.540009187004373281e+00
1.199999999999999946e-06 1.960506816612756833e+26 4.539638463167820603e+00
1.210000000000000062e-06 1.954430405412943330e+26 4.539219780192579989e+00
1.219999999999999966e-06 1.948939948449355264e+26 4.539498862645432453e+00
1.230000000000000082e-06 1.942942061078812876e+26 4.539086354719461092e+00
1.239999999999999986e-06 1.937274929177413305e+26 4.539322212772014531e+00
1.250000000000000102e-06 1.931747550711878015e+26 4.538966417559462840e+00
1.260000000000000007e-06 1.925866468501875017e+26 4.538563131843247334e+00
1.270000000000000123e-06 1.920561470104205761e+26 4.538863495151313820e+00
1.280000000000000027e-06 1.914897889593853621e+26 4.538464061576056530e+00
1.289999999999999931e-06 1.909283391561099873e+26 4.538732341503119549e+00
1.300000000000000047e-06 1.903934939726149567e+26 4.538379076823235714e+00
1.309999999999999951e-06 1.898242443163566396e+26 4.537993097376806340e+00
1.320000000000000067e-06 1.892735987910469250e+26 4.538270060081256219e+00
1.329999999999999972e-06 1.887636823010537196e+26 4.537929791679330194e+00
1.340000000000000088e-06 1.882053148771651874e+26 4.537553548742739196e+00
1.349999999999999992e-06 1.877034716431290389e+26 4.537896529300630810e+00
1.360000000000000108e-06 1.871516030974306193e+26 4.537509791231236989e+00
1.370000000000000012e-06 1.866177483326262435e+26 4.537142397022128293e+00
1.380000000000000128e-06 1.861257917082763270e+26 4.537494241450410470e+00
1.390000000000000032e-06 1.855841560894126669e+26 4.537115826069296531e+00
1.399999999999999937e-06 1.850464146875519710e+26 4.536755696879427369e+00
1.410000000000000053e-06 1.845640018836706326e+26 4.537115098257963552e+00
1.419999999999999957e-06 1.840461727929025790e+26 4.536747466765103987e+00
1.430000000000000073e-06 1.835182249484731542e+26 4.536390049263854252e+00
1.439999999999999977e-06 1.830450355182582498e+26 4.536756148265909339e+00
1.450000000000000093e-06 1.825228725752849510e+26 4.536395021071836453e+00
1.459999999999999997e-06 1.820183383591337702e+26 4.536043619919860603e+00
1.470000000000000113e-06 1.815541395483668451e+26 4.536416391252217295e+00
1.480000000000000018e-06 1.810418728090200129e+26 4.536072894682356527e+00
1.490000000000000134e-06 1.805322477436799166e+26 4.535717443400184123e+00
1.500000000000000038e-06 1.800763545071948837e+26 4.535432544611865069e+00
1.509999999999999942e-06 1.795876572752235073e+26 4.535761415964791432e+00
1.520000000000000058e-06 1.791234375801804075e+26 4.535473297457343733e+00
1.529999999999999963e-06 1.786262482746600040e+26 4.535137678686321117e+00
1.540000000000000079e-06 1.781603198778223438e+26 4.535475409643854761e+00
1.549999999999999983e-06 1.777053211760760184e+26 4.535206177359961011e+00
1.560000000000000099e-06 1.772165471528743151e+26 4.534873876626465794e+00
1.570000000000000003e-06 1.767315260978348740e+26 4.534552311809541436e+00
1.580000000000000119e-06 1.762635234190951547e+26 4.534903526102601390e+00
1.590000000000000023e-06 1.758336165359490864e+26 4.534646478939341918e+00
1.599999999999999928e-06 1.753565238621002598e+26 4.534323831803138027e+00
1.610000000000000044e-06 1.748830299339202792e+26 4.534018289028066029e+00
1.619999999999999948e-06 1.744615287794244202e+26 4.534437360474720791e+00
1.630000000000000064e-06 1.740072353001506319e+26 4.534136658735268277e+00
1.639999999999999968e-06 1.735412980233948667e+26 4.533825759570127012e+00
1.650000000000000084e-06 1.731137342047871373e+26 4.533585706751885880e+00
1.659999999999999988e-06 1.726676236060115379e+26 4.533960097659891275e+00
1.670000000000000104e-06 1.722239960332381147e+26 4.533668360090590710e+00
1.680000000000000009e-06 1.718037569512758215e+26 4.533432117016242380e+00
1.690000000000000125e-06 1.713510640134043497e+26 4.533134109475408735e+00
1.700000000000000029e-06 1.709150872328443784e+26 4.533516297437245157e+00
1.709999999999999933e-06 1.705158904292897821e+26 4.533285649841510612e+00
1.720000000000000049e-06 1.700709335595344200e+26 4.533001410066657577e+00
1.729999999999999953e-06 1.696281436719962872e+26 4.532710121851065033e+00
1.740000000000000069e-06 1.692223694786447163e+26 4.532484900279926343e+00
1.749999999999999974e-06 1.688119305703434818e+26 4.532874753508220778e+00
1.760000000000000090e-06 1.683766271792433321e+26 4.532597317705061357e+00
1.769999999999999994e-06 1.679439486613601141e+26 4.532323236283378520e+00
1.780000000000000110e-06 1.675468322536022158e+26 4.532096010104536887e+00
1.790000000000000014e-06 1.671457456678106125e+26 4.532494731030794810e+00
1.800000000000000130e-06 1.667201329951033314e+26 4.532227941113982084e+00
1.810000000000000035e-06 1.663301080302962097e+26 4.532015814514829266e+00
1.819999999999999939e-06 1.659092027345816125e+26 4.531750756760794197e+00
1.830000000000000055e-06 1.655036009197273139e+26 4.531486212541636860e+00
1.839999999999999959e-06 1.651005879950132328e+26 4.531900708928651156e+00
1.850000000000000075e-06 1.647197129635498641e+26 4.531701861422005706e+00
1.859999999999999979e-06 1.643080542456406889e+26 4.531452751851698935e+00
1.870000000000000095e-06 1.639119611420576234e+26 4.531200198177175231e+00
1.880000000000000000e-06 1.635376167018730746e+26 4.531009768553490247e+00
1.890000000000000116e-06 1.631451851596925338e+26 4.531435772294403641e+00
1.900000000000000020e-06 1.627424296090995718e+26 4.531198302622731156e+00
1.909999999999999924e-06 1.623877420498953283e+26 4.531014182924876010e+00
1.920000000000000252e-06 1.619890103098599523e+26 4.530779951055633248e+00
1.930000000000000156e-06 1.615926038133838599e+26 4.530545282989096201e+00
1.940000000000000060e-06 1.611982548342692372e+26 4.530315971701040390e+00
1.949999999999999965e-06 1.608642952605593369e+26 4.530809949110834012e+00
1.959999999999999869e-06 1.604733192533348898e+26 4.530580979016250787e+00
1.970000000000000197e-06 1.600848618169353027e+26 4.530356322974403049e+00
1.980000000000000101e-06 1.597302337605810904e+26 4.530184344549226694e+00
1.990000000000000005e-06 1.593587264916234615e+26 4.529955460667794753e+00
1.999999999999999909e-06 1.589886946109562789e+26 4.530405781805440846e+00
2.010000000000000237e-06 1.586078244994359125e+26 4.530185634506380232e+00
2.020000000000000142e-06 1.582598514629420907e+26 4.530015661590200082e+00
2.030000000000000046e-06 1.578959715242951921e+26 4.529796801855424881e+00
2.039999999999999950e-06 1.575206856144994272e+26 4.529581070896625761e+00
2.049999999999999854e-06 1.571473126272307422e+26 4.529363334902511973e+00
2.060000000000000182e-06 1.568070092012107662e+26 4.529201951751180566e+00
2.070000000000000086e-06 1.564629024997986197e+26 4.529661665664295178e+00
2.079999999999999991e-06 1.560950860601473149e+26 4.529454331725302652e+00
2.089999999999999895e-06 1.557601257885546979e+26 4.529299649578537590e+00
2.100000000000000223e-06 1.553955128548629129e+26 4.529096783351167055e+00
2.110000000000000127e-06 1.550465414209698828e+26 4.528896254981570557e+00
2.120000000000000031e-06 1.546862648211400139e+26 4.528696793156683498e+00
2.129999999999999935e-06 1.543584743804516901e+26 4.528553638268420833e+00
2.139999999999999840e-06 1.540141927729641022e+26 4.529036982110180354e+00
2.150000000000000167e-06 1.536725774164365162e+26 4.528848445254570088e+00
2.160000000000000072e-06 1.533499940011211339e+26 4.528713432995225219e+00
2.169999999999999976e-06 1.529987662081957379e+26 4.528532225061256966e+00
2.179999999999999880e-06 1.526622758464279908e+26 4.528350619060304005e+00
2.190000000000000208e-06 1.523140244518464408e+26 4.528174163154525367e+00
2.200000000000000112e-06 1.519980699099957321e+26 4.528048065601800509e+00
2.210000000000000016e-06 1.516536752880593970e+26 4.527871670700218232e+00
2.219999999999999921e-06 1.513361346608002358e+26 4.528372080225909535e+00
2.230000000000000248e-06 1.510247619285410253e+26 4.528249617370884827e+00
2.240000000000000153e-06 1.506850813117095493e+26 4.528080668710154910e+00
2.250000000000000057e-06 1.503469694545655611e+26 4.527912564826873876e+00
2.259999999999999961e-06 1.500234695712773066e+26 4.527743248635956341e+00
2.269999999999999866e-06 1.497179248884625037e+26 4.527623541618830849e+00
2.280000000000000193e-06 1.493843188895257865e+26 4.527457739633948819e+00
2.290000000000000098e-06 1.490652787572107229e+26 4.527290807585298893e+00
2.300000000000000002e-06 1.487634385635498057e+26 4.527174538292110917e+00
2.309999999999999906e-06 1.484342983281214768e+26 4.527012080829086571e+00
2.320000000000000234e-06 1.481185746943809906e+26 4.527521724503135836e+00
2.330000000000000138e-06 1.478054934925027236e+26 4.527360458622673001e+00
2.340000000000000042e-06 1.475099181311109319e+26 4.527248518142175548e+00
2.349999999999999947e-06 1.471868654265936418e+26 4.527093395625906069e+00
2.359999999999999851e-06 1.468653971119216352e+26 4.526940709192662560e+00
2.370000000000000179e-06 1.465584872010090543e+26 4.526788706638084747e+00
2.380000000000000083e-06 1.462688631803921304e+26 4.526686225457742907e+00
2.389999999999999987e-06 1.459520980958199208e+26 4.526542084149602907e+00
2.399999999999999891e-06 1.456498830845200260e+26 4.526399051072802493e+00
2.410000000000000219e-06 1.453647493504841856e+26 4.526304964585752266e+00
2.420000000000000123e-06 1.450526766611559293e+26 4.526170068922530376e+00
2.430000000000000028e-06 1.447421720285163912e+26 4.526038107543287836e+00
2.439999999999999932e-06 1.444461165548097695e+26 4.525906979060115631e+00
2.450000000000000260e-06 1.441662786901448743e+26 4.525826587878569285e+00
2.460000000000000164e-06 1.438717599236539055e+26 4.526377726664295942e+00
2.470000000000000068e-06 1.435800262058475763e+26 4.526253759492737672e+00
2.479999999999999972e-06 1.432768074206721282e+26 4.526133387889205828e+00
2.489999999999999877e-06 1.430028411411309693e+26 4.526056555350620236e+00
2.500000000000000205e-06 1.427022896313665845e+26 4.525938695719450067e+00
2.510000000000000109e-06 1.424159207110922370e+26 4.525816179531383376e+00
2.520000000000000013e-06 1.421456229208661950e+26 4.525741152317126925e+00
2.529999999999999917e-06 1.418488758709204277e+26 4.525625402027862343e+00
2.540000000000000245e-06 1.415662181022278477e+26 4.525508323962258217e+00
2.550000000000000149e-06 1.412719679834868073e+26 4.525393525394293626e+00
2.560000000000000054e-06 1.410063400003732189e+26 4.525319645348486297e+00
2.569999999999999958e-06 1.407145246268036892e+26 4.525206058735140147e+00
2.579999999999999862e-06 1.404369440115535460e+26 4.525091493963222966e+00
2.590000000000000190e-06 1.401476550624699894e+26 4.524979895986232847e+00
2.600000000000000094e-06 1.398867568357802895e+26 4.524909172189221174e+00
2.609999999999999998e-06 1.396127823877848664e+26 4.524799033311943219e+00
2.619999999999999903e-06 1.393273663510429367e+26 4.524692591712341283e+00
2.630000000000000230e-06 1.390433140307234553e+26 4.524588476864303210e+00
2.640000000000000135e-06 1.388002053812782762e+26 4.524523920673590993e+00
2.650000000000000039e-06 1.385188440438405474e+26 4.524425259564542223e+00
