# z (um)	 Electron density (m^-3)
0.000000000000000000e+00 6.410835074169676270e+27 4.479609376679328570e+00
1.000000000000000021e-08 5.989844642615783569e+27 4.474687428896289454e+00
2.000000000000000042e-08 5.618022671448084265e+27 4.470419166594916227e+00
3.000000000000000394e-08 5.291686227155078597e+27 4.467795062170847764e+00
4.000000000000000084e-08 4.999213891585859186e+27 4.465441170738333909e+00
4.999999999999999774e-08 4.735556297724283074e+27 4.464173523540851285e+00
6.000000000000000787e-08 4.496912527703534497e+27 4.463096507624645604e+00
7.000000000000000477e-08 4.277773752275031530e+27 4.462842099086553382e+00
8.000000000000000167e-08 4.076915914137175458e+27 4.462021604460296942e+00
8.999999999999999857e-08 3.892638185629791840e+27 4.461450246039109224e+00
9.999999999999999547e-08 3.722667831447861193e+27 4.460955479462760387e+00
1.100000000000000056e-07 3.565451435557495243e+27 4.460253881663391873e+00
1.200000000000000157e-07 3.419203475777183316e+27 4.459732931868220618e+00
1.299999999999999994e-07 3.283334360906543817e+27 4.458922615097180575e+00
1.400000000000000095e-07 3.157505806735544247e+27 4.458741040648051879e+00
1.499999999999999932e-07 3.039895399276185014e+27 4.458116329029619074e+00
1.600000000000000033e-07 2.931330854767786171e+27 4.457761497476358414e+00
1.700000000000000135e-07 2.829709893596931268e+27 4.457565657490732747e+00
1.799999999999999971e-07 2.735258884224063962e+27 4.457529979864159664e+00
1.900000000000000073e-07 2.645665339502061102e+27 4.456078649346245868e+00
1.999999999999999909e-07 2.560890929743829355e+27 4.454787289992943045e+00
2.100000000000000011e-07 2.481735832924062628e+27 4.454215584024843189e+00
2.200000000000000112e-07 2.407568003697497854e+27 4.453640429276532586e+00
2.299999999999999949e-07 2.337694509434242599e+27 4.453360384833827901e+00
2.400000000000000315e-07 2.271937558929547085e+27 4.452779493650922404e+00
2.499999999999999887e-07 2.209325944914327313e+27 4.451444057103818075e+00
2.599999999999999988e-07 2.150813629729879439e+27 4.450005419700026721e+00
2.700000000000000090e-07 2.095326938016218461e+27 4.448584818912767247e+00
2.800000000000000191e-07 2.042495611897718979e+27 4.447125328019755131e+00
2.900000000000000292e-07 1.992072439730427258e+27 4.445468198067541010e+00
2.999999999999999864e-07 1.944374526791308401e+27 4.445361036308514535e+00
3.099999999999999966e-07 1.898801586204420762e+27 4.444434254399212136e+00
3.200000000000000067e-07 1.855259231991711187e+27 4.443712342702765383e+00
3.300000000000000168e-07 1.813780557805675208e+27 4.442451485503259079e+00
3.400000000000000270e-07 1.773983801748484103e+27 4.440638307392059225e+00
3.499999999999999842e-07 1.735707497226008756e+27 4.438945323993396919e+00
3.599999999999999943e-07 1.698852683991633601e+27 4.437084540872235472e+00
3.700000000000000044e-07 1.663469571024357893e+27 4.435467645637602097e+00
3.800000000000000146e-07 1.629372172113836470e+27 4.434637781592186911e+00
3.900000000000000247e-07 1.596354778687426419e+27 4.432890828913167880e+00
3.999999999999999819e-07 1.564796140189196250e+27 4.431352908037805349e+00
4.099999999999999920e-07 1.534708661635812915e+27 4.429924748331359297e+00
4.200000000000000022e-07 1.506394144245457158e+27 4.427943049446594337e+00
4.300000000000000123e-07 1.479732301093329976e+27 4.426252071071132832e+00
4.400000000000000224e-07 1.455170951621295681e+27 4.424450420159975472e+00
4.500000000000000326e-07 1.433659681904585058e+27 4.422483747605220117e+00
4.599999999999999898e-07 1.420715150411110413e+27 4.422100092618456380e+00
4.699999999999999999e-07 1.396858406010319013e+27 4.420411766983657564e+00
4.800000000000000630e-07 1.367383218662860190e+27 4.418588231574364755e+00
4.899999999999999672e-07 1.338744485593418079e+27 4.417318318902576202e+00
4.999999999999999774e-07 1.311579874006935395e+27 4.415411206804667366e+00
5.099999999999999875e-07 1.285117631769107518e+27 4.414487535785900363e+00
5.199999999999999976e-07 1.259889422005419017e+27 4.412118899557980534e+00
5.300000000000000078e-07 1.235360505668968687e+27 4.411424450540567754e+00
5.400000000000000179e-07 1.211662095021123743e+27 4.409656098122843204e+00
5.500000000000000281e-07 1.188903968787409736e+27 4.408804303806681091e+00
5.600000000000000382e-07 1.166848920825186336e+27 4.407728470114198771e+00
5.700000000000000483e-07 1.145671029660674609e+27 4.407053381139204085e+00
5.800000000000000585e-07 1.125129844269435026e+27 4.405797380796316887e+00
5.899999999999999627e-07 1.105297141983070639e+27 4.404651282507368926e+00
5.999999999999999728e-07 1.086151909164846958e+27 4.403088536112477414e+00
6.099999999999999830e-07 1.067353782737175202e+27 4.402539748476885784e+00
6.199999999999999931e-07 1.049430133525957114e+27 4.401628683054756408e+00
6.300000000000000033e-07 1.032110606246590922e+27 4.400453245953280579e+00
6.400000000000000134e-07 1.014996304036037419e+27 4.399382755379653176e+00
6.500000000000000235e-07 9.985122826429519086e+26 4.398733960515917474e+00
6.600000000000000337e-07 9.826999218984129969e+26 4.397417963003911190e+00
6.700000000000000438e-07 9.672275894368476190e+26 4.396918701100880789e+00
6.800000000000000539e-07 9.521318547487566981e+26 4.396168493651322784e+00
6.900000000000000641e-07 9.377360358040982014e+26 4.394723984012360418e+00
6.999999999999999683e-07 9.236122531155526586e+26 4.394452335476796812e+00
7.099999999999999785e-07 9.098237601861230077e+26 4.393467527475059420e+00
7.199999999999999886e-07 8.964338333143759865e+26 4.392588710584704792e+00
7.299999999999999987e-07 8.834216674561567316e+26 4.391775537788483064e+00
7.400000000000000089e-07 8.707696868163010829e+26 4.391037511020765116e+00
7.500000000000000190e-07 8.584677590278811066e+26 4.390291858558865279e+00
7.600000000000000291e-07 8.464247939677113638e+26 4.388929361572735388e+00
7.700000000000000393e-07 8.347668134480284430e+26 4.388362608476018778e+00
7.800000000000000494e-07 8.232088351418377539e+26 4.388183103102949900e+00
7.900000000000000595e-07 8.120996011092749471e+26 4.386576181487064297e+00
7.999999999999999638e-07 8.013199998452895269e+26 4.386189273077545359e+00
8.099999999999999739e-07 7.905540603556327847e+26 4.385420327527917550e+00
8.199999999999999841e-07 7.803233204525001635e+26 4.384724287346481120e+00
8.299999999999999942e-07 7.702701925946478575e+26 4.383663484378820918e+00
8.400000000000000043e-07 7.603493527490673248e+26 4.383393025857932557e+00
8.500000000000000145e-07 7.507780268459627206e+26 4.382499443458854671e+00
8.600000000000000246e-07 7.412724825278574562e+26 4.381582586569320092e+00
8.700000000000000347e-07 7.319818297234671840e+26 4.381147250976084706e+00
8.800000000000000449e-07 7.231637832834278836e+26 4.380682117888049731e+00
8.900000000000000550e-07 7.143094593558622045e+26 4.380326883490654133e+00
9.000000000000000652e-07 7.056809924224793356e+26 4.379625534474979709e+00
9.099999999999999694e-07 6.974285387793010225e+26 4.378554938470847979e+00
9.199999999999999795e-07 6.892015054544054126e+26 4.377959480562077843e+00
9.299999999999999897e-07 6.811681036074682011e+26 4.377401216143076645e+00
9.399999999999999998e-07 6.733094003638828255e+26 4.377329679932308260e+00
9.500000000000000100e-07 6.656456449624932279e+26 4.376896661215066153e+00
9.600000000000001260e-07 6.583178770981657685e+26 4.376132487989599085e+00
9.700000000000000302e-07 6.510042423490266856e+26 4.375834704148142684e+00
9.799999999999999345e-07 6.437944410157022148e+26 4.374857875231810134e+00
9.900000000000000505e-07 6.367915041315739505e+26 4.374740046756627088e+00
9.999999999999999547e-07 6.299375222006186279e+26 4.374736230097898471e+00
1.010000000000000071e-06 6.232241951948508889e+26 4.374895397709077649e+00
1.019999999999999975e-06 6.164847385207215048e+26 4.375639286175899478e+00
1.030000000000000091e-06 6.100085480972593845e+26 4.374770003433560817e+00
1.039999999999999995e-06 6.037092599851818740e+26 4.374691595362764751e+00
1.050000000000000111e-06 5.975352535678836290e+26 4.374632113802660704e+00
1.060000000000000016e-06 5.914846631807875168e+26 4.374557939605469237e+00
1.069999999999999920e-06 5.855147231285523584e+26 4.373375676134777734e+00
1.080000000000000036e-06 5.795523765528819616e+26 4.373818144245738004e+00
1.089999999999999940e-06 5.738477504516944892e+26 4.373816912710977611e+00
1.100000000000000056e-06 5.682144353616466455e+26 4.372726530442581527e+00
1.109999999999999960e-06 5.627214067974718025e+26 4.372833596342657003e+00
1.120000000000000076e-06 5.571520305582223923e+26 4.372575772926336590e+00
1.129999999999999981e-06 5.518738039328755563e+26 4.372301877203607745e+00
1.140000000000000097e-06 5.466837161733964089e+26 4.372447321109672380e+00
1.150000000000000001e-06 5.414209048403719001e+26 4.371879742795991675e+00
1.160000000000000117e-06 5.364195256871729028e+26 4.372062215396622875e+00
1.170000000000000021e-06 5.314733399807709521e+26 4.371136492341562985e+00
1.179999999999999925e-06 5.264885133846213152e+26 4.370588929109346488e+00
1.190000000000000041e-06 5.217508808228033162e+26 4.370851912025634611e+00
1.199999999999999946e-06 5.169370191140718842e+26 4.370385805995330664e+00
1.210000000000000062e-06 5.123648545571922450e+26 4.370693142615254878e+00
1.219999999999999966e-06 5.077148387787832497e+26 4.370286819885346397e+00
1.230000000000000082e-06 5.032698341533462342e+26 4.369436254359102101e+00
1.239999999999999986e-06 4.988089122726353921e+26 4.370200120136393807e+00
1.250000000000000102e-06 4.945121519026329998e+26 4.369450859472459925e+00
1.260000000000000007e-06 4.901696873783575318e+26 4.369070759678255200e+00
1.270000000000000123e-06 4.860184654607044587e+26 4.368300173666230357e+00
1.280000000000000027e-06 4.818471559222067302e+26 4.369155199293006220e+00
1.289999999999999931e-06 4.778303767121742515e+26 4.368483358574734687e+00
1.300000000000000047e-06 4.737652702944968224e+26 4.368179270339732412e+00
1.309999999999999951e-06 4.697660664122502315e+26 4.367893341780185956e+00
1.320000000000000067e-06 4.659449241634952893e+26 4.367221877815979703e+00
1.329999999999999972e-06 4.621088051927234983e+26 4.367733727466885263e+00
1.340000000000000088e-06 4.584069573184438138e+26 4.367151765440449473e+00
1.349999999999999992e-06 4.546452278622995409e+26 4.367372432088596490e+00
1.360000000000000108e-06 4.509511649766483749e+26 4.367167307853944358e+00
1.370000000000000012e-06 4.474235811461483488e+26 4.366581753027893420e+00
1.380000000000000128e-06 4.438418688319572864e+26 4.366415069083885214e+00
1.390000000000000032e-06 4.403149254297909709e+26 4.366264178852681255e+00
1.399999999999999937e-06 4.368415585040104032e+26 4.366128764982820876e+00
1.410000000000000053e-06 4.335262900814658386e+26 4.365606477721080125e+00
1.419999999999999957e-06 4.301556634710746556e+26 4.365507514452817261e+00
1.430000000000000073e-06 4.268353049902024001e+26 4.365417456274653496e+00
1.439999999999999977e-06 4.235640633671710775e+26 4.365342115252210498e+00
1.450000000000000093e-06 4.204516909125266337e+26 4.364441199994081089e+00
1.459999999999999997e-06 4.172745679844228454e+26 4.364405473436390182e+00
1.470000000000000113e-06 4.141439608804594075e+26 4.364373311900163088e+00
1.480000000000000018e-06 4.110652698941261289e+26 4.364355144730439839e+00
1.490000000000000134e-06 4.080242555917434434e+26 4.364350915066002479e+00
1.500000000000000038e-06 4.050266442454117108e+26 4.364360378122055018e+00
1.509999999999999942e-06 4.021692371720626057e+26 4.363993615243495938e+00
1.520000000000000058e-06 3.992309097028332015e+26 4.362830873677140175e+00
1.529999999999999963e-06 3.963578260070902755e+26 4.362880253659588980e+00
1.540000000000000079e-06 3.935247854978224947e+26 4.362942671158420715e+00
1.549999999999999983e-06 3.907309346828246003e+26 4.363017950256324440e+00
1.560000000000000099e-06 3.879752028535687808e+26 4.363116186107887984e+00
1.570000000000000003e-06 3.852666111489184692e+26 4.362722399198132095e+00
1.580000000000000119e-06 3.825549663006850097e+26 4.362074838857510350e+00
1.590000000000000023e-06 3.799104782163360713e+26 4.362199322620798014e+00
1.599999999999999928e-06 3.773011340664509675e+26 4.362345849907704576e+00
1.610000000000000044e-06 3.747342554236563246e+26 4.362053137352601695e+00
1.619999999999999948e-06 3.721940926873462903e+26 4.362219099271533729e+00
1.630000000000000064e-06 3.696589012575426312e+26 4.361579757596126150e+00
1.639999999999999968e-06 3.671924381374210814e+26 4.361320595937311140e+00
1.650000000000000084e-06 3.647509453307183227e+26 4.361514157942965042e+00
1.659999999999999988e-06 3.623115702570566367e+26 4.360967415343041331e+00
1.670000000000000104e-06 3.599413763663135776e+26 4.360686992513408633e+00
1.680000000000000009e-06 3.575930106788276954e+26 4.360912799575495491e+00
1.690000000000000125e-06 3.552814805679724474e+26 4.360713459620349397e+00
1.700000000000000029e-06 3.529636419611269227e+26 4.360202197803509705e+00
1.709999999999999933e-06 3.507117491712608238e+26 4.359963452271285789e+00
1.720000000000000049e-06 3.484514738207213907e+26 4.359478481530923766e+00
1.729999999999999953e-06 3.462474579116057296e+26 4.359755777612706495e+00
1.740000000000000069e-06 3.439954451946843522e+26 4.359947731176709418e+00
1.749999999999999974e-06 3.418182431041072555e+26 4.359485792539078197e+00
1.760000000000000090e-06 3.397019979084144035e+26 4.359349550460393630e+00
1.769999999999999994e-06 3.376063070648523927e+26 4.359618504054535215e+00
1.780000000000000110e-06 3.355140211925777634e+26 4.358741999320031368e+00
1.790000000000000014e-06 3.334689197812303476e+26 4.359030221771917013e+00
1.800000000000000130e-06 3.314266386984495110e+26 4.358172215776785485e+00
1.810000000000000035e-06 3.293493315423961734e+26 4.358918906071925115e+00
1.819999999999999939e-06 3.273574224721869262e+26 4.358022709492696656e+00
1.830000000000000055e-06 3.254073309926464844e+26 4.358403525410643908e+00
1.839999999999999959e-06 3.234881280766920776e+26 4.358294634750225605e+00
1.850000000000000075e-06 3.215576463438879096e+26 4.357924106698909839e+00
1.859999999999999979e-06 3.196046355841701624e+26 4.358276954494754385e+00
1.870000000000000095e-06 3.177203106461216206e+26 4.357869933013341246e+00
1.880000000000000000e-06 3.158883431084351827e+26 4.357848817166017241e+00
1.890000000000000116e-06 3.140530609962892966e+26 4.357014980512050606e+00
1.900000000000000020e-06 3.121812599219894755e+26 4.357843472907304339e+00
1.909999999999999924e-06 3.103878156634919664e+26 4.357025551173547839e+00
1.920000000000000252e-06 3.086323713983628257e+26 4.357480621344915761e+00
1.930000000000000156e-06 3.068788890408507900e+26 4.356684547478032243e+00
1.940000000000000060e-06 3.050643446303560747e+26 4.356767450360669258e+00
1.949999999999999965e-06 3.033805936264718035e+26 4.356756447115767372e+00
1.959999999999999869e-06 3.016841808693631302e+26 4.356022415232915002e+00
1.970000000000000197e-06 2.999533110710999316e+26 4.356857459889632800e+00
1.980000000000000101e-06 2.982941995202034745e+26 4.356138151516493195e+00
1.990000000000000005e-06 2.966780456900834842e+26 4.356157268685088901e+00
1.999999999999999909e-06 2.950488578238529231e+26 4.355902981612935321e+00
2.010000000000000237e-06 2.933733047685148646e+26 4.355545575023848315e+00
2.020000000000000142e-06 2.918029349758095338e+26 4.356076441614116668e+00
2.030000000000000046e-06 2.902326525635703509e+26 4.355348204915334698e+00
2.039999999999999950e-06 2.886319206022223165e+26 4.355834269366644307e+00
2.049999999999999854e-06 2.870895063272383912e+26 4.355569916477979753e+00
2.060000000000000182e-06 2.855692428469028329e+26 4.354856345557900354e+00
2.070000000000000086e-06 2.840182287591709918e+26 4.355369469426854323e+00
2.079999999999999991e-06 2.825242477759668385e+26 4.355126229517017222e+00
2.089999999999999895e-06 2.809829641742708132e+26 4.354869021675591867e+00
2.100000000000000223e-06 2.795483616770047939e+26 4.354966476971814160e+00
2.110000000000000127e-06 2.781053066227050980e+26 4.354346851915596339e+00
2.120000000000000031e-06 2.766061233349015867e+26 4.354505660156807956e+00
2.129999999999999935e-06 2.752163006643249257e+26 4.354617688350425730e+00
2.139999999999999840e-06 2.738172358472689250e+26 4.354024070160907200e+00
2.150000000000000167e-06 2.723627766752356059e+26 4.354200987260080424e+00
2.160000000000000072e-06 2.709935653828549791e+26 4.353561052554872468e+00
2.169999999999999976e-06 2.695939304404165939e+26 4.354136203472227074e+00
2.179999999999999880e-06 2.682522557739500512e+26 4.353508366005182317e+00
2.190000000000000208e-06 2.668534874055615489e+26 4.353761492590943583e+00
2.200000000000000112e-06 2.655601202061760520e+26 4.353917565392164235e+00
2.210000000000000016e-06 2.642579822701125951e+26 4.353313657650152990e+00
2.219999999999999921e-06 2.629047642887562327e+26 4.353139326828219247e+00
2.230000000000000248e-06 2.616231953135031731e+26 4.352984918811059423e+00
2.240000000000000153e-06 2.603178739756566508e+26 4.353545363970221516e+00
2.250000000000000057e-06 2.590654556575264822e+26 4.353012533354056579e+00
2.259999999999999961e-06 2.577642859441444999e+26 4.352811096651026723e+00
2.269999999999999866e-06 2.565322028582940421e+26 4.352674643611653238e+00
2.280000000000000193e-06 2.552752952160338339e+26 4.353309528862233435e+00
2.290000000000000098e-06 2.540718330021067237e+26 4.352746648559994824e+00
2.300000000000000002e-06 2.528796143130786287e+26 4.352194498055876437e+00
2.309999999999999906e-06 2.516377955903530446e+26 4.352062160823814807e+00
2.320000000000000234e-06 2.504634397609312087e+26 4.351965376656295348e+00
2.330000000000000138e-06 2.492658381748853174e+26 4.352569224017878824e+00
2.340000000000000042e-06 2.481175106528994441e+26 4.352093504354361819e+00
2.349999999999999947e-06 2.469219149440088911e+26 4.351938503108550904e+00
2.359999999999999851e-06 2.457963538018671767e+26 4.351410817697388467e+00
2.370000000000000179e-06 2.446282862379913165e+26 4.351266224621446632e+00
2.380000000000000083e-06 2.435179530221121213e+26 4.351253102434720077e+00
2.389999999999999987e-06 2.423851616754283339e+26 4.351891277305565353e+00
2.399999999999999891e-06 2.413008886609211721e+26 4.351391881677283635e+00
2.410000000000000219e-06 2.401691219271896327e+26 4.351266241132951684e+00
2.420000000000000123e-06 2.390468934202717660e+26 4.351189600054702566e+00
2.430000000000000028e-06 2.379921801226922416e+26 4.350708259143109657e+00
2.439999999999999932e-06 2.368859470266309651e+26 4.351039703189739427e+00
2.450000000000000260e-06 2.358505017419201129e+26 4.350565621834207697e+00
2.460000000000000164e-06 2.347862928659258559e+26 4.351288963509706953e+00
2.470000000000000068e-06 2.337693270247168664e+26 4.350824907275222309e+00
2.479999999999999972e-06 2.327058644555649437e+26 4.350729539516280830e+00
2.489999999999999877e-06 2.317069762270842221e+26 4.350269478053504280e+00
2.500000000000000205e-06 2.306609772700621043e+26 4.350235999089396621e+00
2.510000000000000109e-06 2.296252059869983857e+26 4.350150963088939449e+00
2.520000000000000013e-06 2.286480532732378111e+26 4.350156239165846372e+00
2.529999999999999917e-06 2.276298278625191828e+26 4.350081638691303709e+00
2.540000000000000245e-06 2.266734165721890534e+26 4.349705187339090173e+00
2.550000000000000149e-06 2.256724365534385079e+26 4.349638965797489654e+00
2.560000000000000054e-06 2.247516972554620790e+26 4.349993265928003616e+00
2.569999999999999958e-06 2.237675604306848403e+26 4.349935383022337732e+00
2.579999999999999862e-06 2.227920081250122404e+26 4.349880393708900783e+00
2.590000000000000190e-06 2.218762528289881195e+26 4.349524412770144011e+00
2.600000000000000094e-06 2.209168657164176581e+26 4.349479189668845613e+00
2.609999999999999998e-06 2.199657588509057843e+26 4.349436980005412678e+00
2.619999999999999903e-06 2.190743216386177596e+26 4.349047066483147539e+00
2.630000000000000230e-06 2.181389015085181439e+26 4.349013289146821393e+00
2.640000000000000135e-06 2.172582830254361283e+26 4.349075801574930011e+00
2.650000000000000039e-06 2.163373851119855314e+26 4.349103700965199160e+00
