# z (um)	 Electron density (m^-3)
0.000000000000000000e+00 1.060864700666976829e+27 3.160486842288992460e+00
1.000000000000000021e-08 1.045561630651034042e+27 3.160073324734397282e+00
2.000000000000000042e-08 1.030796643596042009e+27 3.159456475411090537e+00
3.000000000000000394e-08 1.016507967206183358e+27 3.159012258024394892e+00
4.000000000000000084e-08 1.002617862300315335e+27 3.158556093754484539e+00
4.999999999999999774e-08 9.891805632519115801e+26 3.158089825412696783e+00
6.000000000000000787e-08 9.758340697463111629e+26 3.157800968328830393e+00
7.000000000000000477e-08 9.633556724771351335e+26 3.157154474255080778e+00
8.000000000000000167e-08 9.511173893024935966e+26 3.156665343214315023e+00
8.999999999999999857e-08 9.392971226378970185e+26 3.156151066263097604e+00
9.999999999999999547e-08 9.278244185507283754e+26 3.155663861972569872e+00
1.100000000000000056e-07 9.163918676278649352e+26 3.155170399618804744e+00
1.200000000000000157e-07 9.056263671027429470e+26 3.154634774653543694e+00
1.299999999999999994e-07 8.950921913132769256e+26 3.154131187425274874e+00
1.400000000000000095e-07 8.849124834527391089e+26 3.153587799752349152e+00
1.499999999999999932e-07 8.747307245621958521e+26 3.153042564488835353e+00
1.600000000000000033e-07 8.649012381629368449e+26 3.152714875031040087e+00
1.700000000000000135e-07 8.555824640725114336e+26 3.151975573019860644e+00
1.799999999999999971e-07 8.460458172528833648e+26 3.151608543304234900e+00
1.900000000000000073e-07 8.371465121408011606e+26 3.150900230233782739e+00
1.999999999999999909e-07 8.283306486489152468e+26 3.150532694838388270e+00
2.100000000000000011e-07 8.195948446393899066e+26 3.149967101557693994e+00
2.200000000000000112e-07 8.112593993406354404e+26 3.149601499405099148e+00
2.299999999999999949e-07 8.032002824898422041e+26 3.148853639402405591e+00
2.400000000000000315e-07 7.950024391137762831e+26 3.148468178680717156e+00
2.499999999999999887e-07 7.873081006014509887e+26 3.147900721141333680e+00
2.599999999999999988e-07 7.795445450528323182e+26 3.147334787271439893e+00
2.700000000000000090e-07 7.721463813974034171e+26 3.146769346647157128e+00
2.800000000000000191e-07 7.649657330444731023e+26 3.146205179222222981e+00
2.900000000000000292e-07 7.576417966839961678e+26 3.145824065261408453e+00
2.999999999999999864e-07 7.507692757378659830e+26 3.145264381776588181e+00
3.099999999999999966e-07 7.437593608453694419e+26 3.144887523000065244e+00
3.200000000000000067e-07 7.371833656751496677e+26 3.144296821231888028e+00
3.300000000000000168e-07 7.304567943154965859e+26 3.143925991842833056e+00
3.400000000000000270e-07 7.241580586110408111e+26 3.143332084006555949e+00
3.499999999999999842e-07 7.177605171842378367e+26 3.142787459802593553e+00
3.599999999999999943e-07 7.116537959479263755e+26 3.142388690148659069e+00
3.700000000000000044e-07 7.055574960439437600e+26 3.141800457597655249e+00
3.800000000000000146e-07 6.996456969190752430e+26 3.141444332097196313e+00
3.900000000000000247e-07 6.937818677265306337e+26 3.140824593898578154e+00
3.999999999999999819e-07 6.881435436341336071e+26 3.140475459630496680e+00
4.099999999999999920e-07 6.825002591273983160e+26 3.139860876215989194e+00
4.200000000000000022e-07 6.770277123121614408e+26 3.139520181826028988e+00
4.300000000000000123e-07 6.715924392179537167e+26 3.138911611758821163e+00
4.400000000000000224e-07 6.663276019487202386e+26 3.138516248002046982e+00
4.500000000000000326e-07 6.610884520772663552e+26 3.137912400458816808e+00
4.599999999999999898e-07 6.560455664702349721e+26 3.137588691225460025e+00
4.699999999999999999e-07 6.510358164811700850e+26 3.136991762694458785e+00
4.800000000000000630e-07 6.461353887924687177e+26 3.136608563522073290e+00
4.899999999999999672e-07 6.412566023259164534e+26 3.136018390793704036e+00
4.999999999999999774e-07 6.364097116537878135e+26 3.135608728672108381e+00
5.099999999999999875e-07 6.318564944261664238e+26 3.135057163796966417e+00
5.199999999999999976e-07 6.271717098936821078e+26 3.134654336404900210e+00
5.300000000000000078e-07 6.227704449442890568e+26 3.134077367158295324e+00
5.400000000000000179e-07 6.182005172290383840e+26 3.133714766714061017e+00
5.500000000000000281e-07 6.137864644388524421e+26 3.133322437437568109e+00
5.600000000000000382e-07 6.096033809904800868e+26 3.132757054591520429e+00
5.700000000000000483e-07 6.052515763925513548e+26 3.132373344839112672e+00
5.800000000000000585e-07 6.011171969552046699e+26 3.132023935127382419e+00
5.899999999999999627e-07 5.969391481883354877e+26 3.131647813037774952e+00
5.999999999999999728e-07 5.929158877786791856e+26 3.131099062402347588e+00
6.099999999999999830e-07 5.891011355335508957e+26 3.130466468190906237e+00
6.199999999999999931e-07 5.851132311115091354e+26 3.130101710072094257e+00
6.300000000000000033e-07 5.811864164030128525e+26 3.129741063514420052e+00
6.400000000000000134e-07 5.774646013367833693e+26 3.129412633613326111e+00
6.500000000000000235e-07 5.737068681430127693e+26 3.128792223615716850e+00
6.600000000000000337e-07 5.699533011842677704e+26 3.128442949297416398e+00
6.700000000000000438e-07 5.663945891888270916e+26 3.128096258409315489e+00
6.800000000000000539e-07 5.628010786734274815e+26 3.127484352684414937e+00
6.900000000000000641e-07 5.592006339349320485e+26 3.127321245178865894e+00
6.999999999999999683e-07 5.558128989273753371e+26 3.126713064526953634e+00
7.099999999999999785e-07 5.523215492283851725e+26 3.126383490052895731e+00
7.199999999999999886e-07 5.488794962164002764e+26 3.126058002253268242e+00
7.299999999999999987e-07 5.455358361950433699e+26 3.125460811740285116e+00
7.400000000000000089e-07 5.422775520984852936e+26 3.125316350174389690e+00
7.500000000000000190e-07 5.390955034704279161e+26 3.124724132131043941e+00
7.600000000000000291e-07 5.358385653862931268e+26 3.124414446731338835e+00
7.700000000000000393e-07 5.327628560954205542e+26 3.124002134316392176e+00
7.800000000000000494e-07 5.296424290130584808e+26 3.123419240262812036e+00
7.900000000000000595e-07 5.265151806302111283e+26 3.123121594732375605e+00
7.999999999999999638e-07 5.234354832867056025e+26 3.122719506455302607e+00
8.099999999999999739e-07 5.205864242783531373e+26 3.122401011015385031e+00
8.199999999999999841e-07 5.175869001826970587e+26 3.122005462619934057e+00
8.299999999999999942e-07 5.146368824734923428e+26 3.121438232403899615e+00
8.400000000000000043e-07 5.116674476969762260e+26 3.121334714441697855e+00
8.500000000000000145e-07 5.089511259704861964e+26 3.120772188191303975e+00
8.600000000000000246e-07 5.061038700808829974e+26 3.120387973934398929e+00
8.700000000000000347e-07 5.033519041260207542e+26 3.120096150585988326e+00
8.800000000000000449e-07 5.006071105398044295e+26 3.119718466814708879e+00
8.900000000000000550e-07 4.978662653116630608e+26 3.119343196189531486e+00
9.000000000000000652e-07 4.953222647113190105e+26 3.118794865301609764e+00
9.099999999999999694e-07 4.926017083966943635e+26 3.118717418714361145e+00
9.199999999999999795e-07 4.899905981651115803e+26 3.118327478408182252e+00
9.299999999999999897e-07 4.873817394551184179e+26 3.117963477964297514e+00
9.399999999999999998e-07 4.848441810232185086e+26 3.117428397338023238e+00
9.500000000000000100e-07 4.824183132532387351e+26 3.117066552334082807e+00
9.600000000000001260e-07 4.799300948542225646e+26 3.116687711591598298e+00
9.700000000000000302e-07 4.773969010610610110e+26 3.116631385919399033e+00
9.799999999999999345e-07 4.749775930190859006e+26 3.116107588483401081e+00
9.900000000000000505e-07 4.725759519980610526e+26 3.115738248150973000e+00
9.999999999999999547e-07 4.701736393819862315e+26 3.115393059799535180e+00
1.010000000000000071e-06 4.679429323632180171e+26 3.115048593867446591e+00
1.019999999999999975e-06 4.656226196465072962e+26 3.114687789102054793e+00
1.030000000000000091e-06 4.633324591477312068e+26 3.114349304659076445e+00
1.039999999999999995e-06 4.610371049472491268e+26 3.114014655932833442e+00
1.050000000000000111e-06 4.587951847592331341e+26 3.113662663799334318e+00
1.060000000000000016e-06 4.565511359776734119e+26 3.113333456084506956e+00
1.069999999999999920e-06 4.543321424367730266e+26 3.113006951491596563e+00
1.080000000000000036e-06 4.522474386430255536e+26 3.112661976921314633e+00
1.089999999999999940e-06 4.500769400355647441e+26 3.112340936242893985e+00
1.100000000000000056e-06 4.479571792514550992e+26 3.112003882099195096e+00
1.109999999999999960e-06 4.458341613531598517e+26 3.111688279084842801e+00
1.120000000000000076e-06 4.437343188781266630e+26 3.111375349451772188e+00
1.129999999999999981e-06 4.417110018397146425e+26 3.111046933479366228e+00
1.140000000000000097e-06 4.396859496020640518e+26 3.110737987189084119e+00
1.150000000000000001e-06 4.376790201804541917e+26 3.110415310127554012e+00
1.160000000000000117e-06 4.356676926395219872e+26 3.110112750885516419e+00
1.170000000000000021e-06 4.337742741827127639e+26 3.109966715913083046e+00
1.179999999999999925e-06 4.318049277336871511e+26 3.109669181363757140e+00
1.190000000000000041e-06 4.299235791933941823e+26 3.109045436722519984e+00
1.199999999999999946e-06 4.279949397866950165e+26 3.108752423555384059e+00
1.210000000000000062e-06 4.260842410857006970e+26 3.108445880041525999e+00
1.219999999999999966e-06 4.241597988969305458e+26 3.108330401735694082e+00
1.230000000000000082e-06 4.223144034350949834e+26 3.108029023525882284e+00
1.239999999999999986e-06 4.204626534939227256e+26 3.107745376323124198e+00
1.250000000000000102e-06 4.187209587572865058e+26 3.107133229016130205e+00
1.260000000000000007e-06 4.168706907442195577e+26 3.107026488074446924e+00
1.270000000000000123e-06 4.150971273217243806e+26 3.106734796731813741e+00
1.280000000000000027e-06 4.133165640786933858e+26 3.106459852312460246e+00
1.289999999999999931e-06 4.115712339358210938e+26 3.106344259355420689e+00
1.300000000000000047e-06 4.099659442162608132e+26 3.105753464456878277e+00
1.309999999999999951e-06 4.082599581770662921e+26 3.105471351666167390e+00
1.320000000000000067e-06 4.065131890654049859e+26 3.105377849985694105e+00
1.329999999999999972e-06 4.048404706901487691e+26 3.105100698236789469e+00
1.340000000000000088e-06 4.031646097658001238e+26 3.104678183976852246e+00
1.349999999999999992e-06 4.015006611813607355e+26 3.104418743641533585e+00
1.360000000000000108e-06 3.999010479832489839e+26 3.104149108246947897e+00
1.370000000000000012e-06 3.982750297863467657e+26 3.103744269214848028e+00
1.380000000000000128e-06 3.966812714535633192e+26 3.103479453977910474e+00
1.390000000000000032e-06 3.950699259188281250e+26 3.103389802532440456e+00
1.399999999999999937e-06 3.935225440180904374e+26 3.102817376225668333e+00
1.410000000000000053e-06 3.919411931536521912e+26 3.102732429886720489e+00
1.419999999999999957e-06 3.904069494420536426e+26 3.102477565710721308e+00
1.430000000000000073e-06 3.888708513262836488e+26 3.102082531763457052e+00
1.439999999999999977e-06 3.873649880147000712e+26 3.101832239796230795e+00
1.450000000000000093e-06 3.858185953343067229e+26 3.101766981246850907e+00
1.459999999999999997e-06 3.843785490462301252e+26 3.101194069371736362e+00
1.470000000000000113e-06 3.828812638899949010e+26 3.101123009098727845e+00
1.480000000000000018e-06 3.813757114341827467e+26 3.101063571383737560e+00
1.490000000000000134e-06 3.799747792474130654e+26 3.100495908118061639e+00
1.500000000000000038e-06 3.785170806429202575e+26 3.100431067786805439e+00
1.509999999999999942e-06 3.771193720539973776e+26 3.099875374014771978e+00
1.520000000000000058e-06 3.756867440187740928e+26 3.099814486901536270e+00
1.529999999999999963e-06 3.743038923507599161e+26 3.099425098260145006e+00
1.540000000000000079e-06 3.729266624289804570e+26 3.099196119767935631e+00
1.549999999999999983e-06 3.715090603551326041e+26 3.099149269300553122e+00
1.560000000000000099e-06 3.701618116306775032e+26 3.098764779658564450e+00
1.570000000000000003e-06 3.688198006777151485e+26 3.098541546843352812e+00
1.580000000000000119e-06 3.674976554760318743e+26 3.098167425265600627e+00
1.590000000000000023e-06 3.661479405420086994e+26 3.098120351389384464e+00
1.599999999999999928e-06 3.648533047939573873e+26 3.097569433913769821e+00
1.610000000000000044e-06 3.635261528036757317e+26 3.097526594379323317e+00
1.619999999999999948e-06 3.622259669533161982e+26 3.097157535760293179e+00
1.630000000000000064e-06 3.609210487059319242e+26 3.097118516153989809e+00
1.639999999999999968e-06 3.596932712975029072e+26 3.096573836611315578e+00
1.650000000000000084e-06 3.584099375939610625e+26 3.096539093566966105e+00
1.659999999999999988e-06 3.571530710348757229e+26 3.096175551263041115e+00
1.670000000000000104e-06 3.558910703905571651e+26 3.096144673675811809e+00
1.680000000000000009e-06 3.547273840868036988e+26 3.095606522935943072e+00
1.690000000000000125e-06 3.533991686961448314e+26 3.095581334427347286e+00
1.700000000000000029e-06 3.521837812881664448e+26 3.095223484859424001e+00
1.709999999999999933e-06 3.509627221834337978e+26 3.095200506660976014e+00
1.720000000000000049e-06 3.497868629038917775e+26 3.094841031876211179e+00
1.729999999999999953e-06 3.485981463592970939e+26 3.094482661691503989e+00
1.740000000000000069e-06 3.474350204340432291e+26 3.094293392719630109e+00
1.749999999999999974e-06 3.462677634301611151e+26 3.093941683584973124e+00
1.760000000000000090e-06 3.450942427445936983e+26 3.093928167428500409e+00
1.769999999999999994e-06 3.439648239533819447e+26 3.093575722286450169e+00
1.780000000000000110e-06 3.428312434863593709e+26 3.093565809588987747e+00
1.790000000000000014e-06 3.417195529569855576e+26 3.093216311479962233e+00
1.800000000000000130e-06 3.405974413327932846e+26 3.092870161090497838e+00
1.810000000000000035e-06 3.394686421341419263e+26 3.092865194520449279e+00
1.819999999999999939e-06 3.383829652783274582e+26 3.092519103185320972e+00
1.830000000000000055e-06 3.371885750826901231e+26 3.092518634689011670e+00
1.839999999999999959e-06 3.361479631870155169e+26 3.092002812499924147e+00
1.850000000000000075e-06 3.350872259763034709e+26 3.091660314776530694e+00
1.859999999999999979e-06 3.339602498878874089e+26 3.091664604189128251e+00
1.870000000000000095e-06 3.329368395617305419e+26 3.091324520359952643e+00
1.880000000000000000e-06 3.319000924645061334e+26 3.090985296696508566e+00
1.890000000000000116e-06 3.308373654078686827e+26 3.090992968007152175e+00
1.900000000000000020e-06 3.298163032247375798e+26 3.090656591822373844e+00
1.909999999999999924e-06 3.288029898647675127e+26 3.090321243673842755e+00
1.920000000000000252e-06 3.277638199262715118e+26 3.090334020991392538e+00
1.930000000000000156e-06 3.267476643561834683e+26 3.090001497674407460e+00
1.940000000000000060e-06 3.256774248690713063e+26 3.089671109029999307e+00
1.949999999999999965e-06 3.246614232832794077e+26 3.089688792206265688e+00
1.959999999999999869e-06 3.237067001128237752e+26 3.089360369450937061e+00
1.970000000000000197e-06 3.227166384027962823e+26 3.089034817252171550e+00
1.980000000000000101e-06 3.217226978451059079e+26 3.089057666499959609e+00
1.990000000000000005e-06 3.207482852589702368e+26 3.088733410018720260e+00
1.999999999999999909e-06 3.198015896300354128e+26 3.088410253911522130e+00
2.010000000000000237e-06 3.188350111578157415e+26 3.088260770625731677e+00
2.020000000000000142e-06 3.178518538815906215e+26 3.088288630637371135e+00
2.030000000000000046e-06 3.168481658600364874e+26 3.087970237709478649e+00
2.039999999999999950e-06 3.159290221543155534e+26 3.087651811676925373e+00
2.049999999999999854e-06 3.150040795465353562e+26 3.087685913608508415e+00
2.060000000000000182e-06 3.140979228475850223e+26 3.087370098152346198e+00
2.070000000000000086e-06 3.131981906498069986e+26 3.087055178717179160e+00
2.079999999999999991e-06 3.123048214911770109e+26 3.086741140523999505e+00
2.089999999999999895e-06 3.113856215814219573e+26 3.086780803174364873e+00
2.100000000000000223e-06 3.104025268985375560e+26 3.086642725323457626e+00
2.110000000000000127e-06 3.095280919805189275e+26 3.086331848765066610e+00
2.120000000000000031e-06 3.086397428592452320e+26 3.086021761430476129e+00
2.129999999999999935e-06 3.077454858429117226e+26 3.086066554260309402e+00
2.139999999999999840e-06 3.069086627350246960e+26 3.085758720638718700e+00
2.150000000000000167e-06 3.060411896663010671e+26 3.085447263042969457e+00
2.160000000000000072e-06 3.051757178330979854e+26 3.085142609247997214e+00
2.169999999999999976e-06 3.042364575148801373e+26 3.085010483029314798e+00
2.179999999999999880e-06 3.033719880210315391e+26 3.085061631689972383e+00
2.190000000000000208e-06 3.025446351337379749e+26 3.084758330402439075e+00
2.200000000000000112e-06 3.017228884320267024e+26 3.084455944958737650e+00
2.210000000000000016e-06 3.009067362235414350e+26 3.084154529405664036e+00
2.219999999999999921e-06 3.000900564733405909e+26 3.084027034534104761e+00
2.230000000000000248e-06 2.992539894470447044e+26 3.084085275803791326e+00
2.240000000000000153e-06 2.983814438917311928e+26 3.083788338451633138e+00
2.250000000000000057e-06 2.975684575731094256e+26 3.083491775779343858e+00
2.259999999999999961e-06 2.967549734294271208e+26 3.083369135083210200e+00
2.269999999999999866e-06 2.959719885397806237e+26 3.083074772269074781e+00
2.280000000000000193e-06 2.951635652984723883e+26 3.083140367497496648e+00
2.290000000000000098e-06 2.943911514439183808e+26 3.082848660477103930e+00
2.300000000000000002e-06 2.935459318548907605e+26 3.082731610748986384e+00
2.309999999999999906e-06 2.927640273351057064e+26 3.082443895365514219e+00
2.320000000000000234e-06 2.920070526498389512e+26 3.082155187146773834e+00
2.330000000000000138e-06 2.912550071817051527e+26 3.081867381925213145e+00
2.340000000000000042e-06 2.904528546115459714e+26 3.082114050801818106e+00
2.349999999999999947e-06 2.896395486178476251e+26 3.081828976050476232e+00
2.359999999999999851e-06 2.889021110197625142e+26 3.081544105828164515e+00
2.370000000000000179e-06 2.881448203050639055e+26 3.081432988075494706e+00
2.380000000000000083e-06 2.874165585891925123e+26 3.081149666101395734e+00
2.389999999999999987e-06 2.866929301306341544e+26 3.080866891228592586e+00
2.399999999999999891e-06 2.859495314715451349e+26 3.080757824257038813e+00
2.410000000000000219e-06 2.851650727400114757e+26 3.080476843230323780e+00
2.420000000000000123e-06 2.844253277183735498e+26 3.080559017964785706e+00
2.430000000000000028e-06 2.836956604632891718e+26 3.080452407461699238e+00
2.439999999999999932e-06 2.829753026375996903e+26 3.080175323191532311e+00
2.450000000000000260e-06 2.822785965592737156e+26 3.079896916385426398e+00
2.460000000000000164e-06 2.815114324086630477e+26 3.079792825542628343e+00
2.470000000000000068e-06 2.808235335084914762e+26 3.079515932670411793e+00
2.479999999999999972e-06 2.801399307275608712e+26 3.079239817131235402e+00
2.489999999999999877e-06 2.794368153025321554e+26 3.079137776420739492e+00
2.500000000000000205e-06 2.787618514333016022e+26 3.078863496001233102e+00
2.510000000000000109e-06 2.779758178701766808e+26 3.078955811201355530e+00
2.520000000000000013e-06 2.773008426093807289e+26 3.078867762315840029e+00
2.529999999999999917e-06 2.766566631152185683e+26 3.078596966992987571e+00
2.540000000000000245e-06 2.759751928770548774e+26 3.078500416746912549e+00
2.550000000000000149e-06 2.752352573474777906e+26 3.078233817855907439e+00
2.560000000000000054e-06 2.745857559812778150e+26 3.077966007690308814e+00
2.569999999999999958e-06 2.739168409254140353e+26 3.077872609021869543e+00
2.579999999999999862e-06 2.732753152213321811e+26 3.077606844354804583e+00
2.590000000000000190e-06 2.726144146578283592e+26 3.077515429349426679e+00
2.600000000000000094e-06 2.719316824497940149e+26 3.077251810324741488e+00
2.609999999999999998e-06 2.712786843522869940e+26 3.077162213574476723e+00
2.619999999999999903e-06 2.706526322962648510e+26 3.076900107050894118e+00
2.630000000000000230e-06 2.700302723563533947e+26 3.076638709647804060e+00
2.640000000000000135e-06 2.693710352883949091e+26 3.076551512812764511e+00
2.650000000000000039e-06 2.686434409940620957e+26 3.076662502533756172e+00
