# z (um)	 Electron density (m^-3)
0.000000000000000000e+00 5.047346212463186837e+25 4.582643446698316581e+00
1.000000000000000021e-08 5.041108109408491009e+25 4.582840481757653350e+00
2.000000000000000042e-08 5.034441109879169383e+25 4.582622806127353954e+00
3.000000000000000394e-08 5.028229414290210498e+25 4.582820378976493636e+00
4.000000000000000084e-08 5.021592120645411023e+25 4.582603109974749955e+00
4.999999999999999774e-08 5.015411086179024186e+25 4.582801139105148636e+00
6.000000000000000787e-08 5.008807495841042287e+25 4.582583746090316268e+00
7.000000000000000477e-08 5.002243322241336658e+25 4.582227595550475208e+00
8.000000000000000167e-08 4.996073872622913432e+25 4.582565770425780727e+00
8.999999999999999857e-08 4.989538741606390507e+25 4.582210053112754977e+00
9.999999999999999547e-08 4.983399487038293438e+25 4.582548659432886140e+00
1.100000000000000056e-07 4.976893219386597998e+25 4.582193375218502673e+00
1.200000000000000157e-07 4.970779547776110474e+25 4.582532455752544642e+00
1.299999999999999994e-07 4.964301970597356950e+25 4.582177600935181339e+00
1.400000000000000095e-07 4.958218548721981056e+25 4.582514791953790301e+00
1.499999999999999932e-07 4.951769088164372693e+25 4.582162694029561223e+00
1.600000000000000033e-07 4.945715167688418309e+25 4.582499599507731780e+00
1.700000000000000135e-07 4.939294049243090537e+25 4.582147902167137410e+00
1.799999999999999971e-07 4.933265381427275428e+25 4.582485970227826222e+00
1.900000000000000073e-07 4.926872416976088328e+25 4.582134697150192615e+00
1.999999999999999909e-07 4.920464035218816998e+25 4.581920207694206049e+00
2.100000000000000011e-07 4.914504025100985856e+25 4.582120033003358905e+00
2.200000000000000112e-07 4.908125413819292064e+25 4.581908292131214644e+00
2.299999999999999949e-07 4.902192196760181638e+25 4.582108598949510281e+00
2.400000000000000315e-07 4.895841402965046996e+25 4.581897269974237297e+00
2.499999999999999887e-07 4.889932642691833985e+25 4.582098041756863083e+00
2.599999999999999988e-07 4.883609527938772433e+25 4.581887122894975128e+00
2.700000000000000090e-07 4.877733798904801423e+25 4.582087399984255960e+00
2.800000000000000191e-07 4.871438207303290861e+25 4.581876868233532463e+00
2.900000000000000292e-07 4.865582343977806557e+25 4.582078547545997083e+00
2.999999999999999864e-07 4.859314488568078381e+25 4.581866075038202091e+00
3.099999999999999966e-07 4.853087821706753896e+25 4.581517036660145870e+00
3.200000000000000067e-07 4.847245891537631186e+25 4.581858528383508933e+00
3.300000000000000168e-07 4.841043992921917760e+25 4.581509874046944653e+00
3.400000000000000270e-07 4.835255564403099803e+25 4.581712737825000659e+00
3.499999999999999842e-07 4.829055146284110479e+25 4.581503617494123937e+00
3.599999999999999943e-07 4.823292461846150328e+25 4.581706942207780742e+00
3.700000000000000044e-07 4.817116550806633251e+25 4.581498175355614322e+00
3.800000000000000146e-07 4.811383787027304944e+25 4.581700737687659064e+00
3.900000000000000247e-07 4.805237003311624509e+25 4.581490040163880728e+00
3.999999999999999819e-07 4.799128587807995579e+25 4.581142503262404020e+00
4.099999999999999920e-07 4.793402281420262319e+25 4.581486237643227710e+00
4.200000000000000022e-07 4.787322251722644497e+25 4.581139167973385717e+00
4.300000000000000123e-07 4.781621180999841730e+25 4.581483346963135972e+00
4.400000000000000224e-07 4.775565011167851640e+25 4.581136614505854077e+00
4.500000000000000326e-07 4.769889046545566681e+25 4.581481235044073230e+00
4.599999999999999898e-07 4.763860983090546148e+25 4.581134978381603773e+00
4.699999999999999999e-07 4.758209981160451485e+25 4.581480040605709014e+00
4.800000000000000630e-07 4.752205875141419886e+25 4.581131740035560895e+00
4.899999999999999672e-07 4.746189719966325434e+25 4.580925051069622000e+00
4.999999999999999774e-07 4.740607312096823338e+25 4.581130336388484992e+00
5.099999999999999875e-07 4.734616717850490683e+25 4.580924033568419595e+00
5.199999999999999976e-07 4.729052266140266381e+25 4.581131100165991121e+00
5.300000000000000078e-07 4.723087096146488730e+25 4.580925203608451568e+00
5.400000000000000179e-07 4.717522388446985419e+25 4.581271777649742916e+00
5.500000000000000281e-07 4.711609328667310156e+25 4.580927321009065523e+00
5.600000000000000382e-07 4.706066740112083473e+25 4.581274229167711987e+00
5.700000000000000483e-07 4.700178748715911358e+25 4.580930173531283955e+00
5.800000000000000585e-07 4.694277346983132341e+25 4.580722580543054256e+00
5.899999999999999627e-07 4.688797545953840314e+25 4.580931482600861138e+00
5.999999999999999728e-07 4.682920603156129423e+25 4.580726671057428590e+00
6.099999999999999830e-07 4.677466799219035442e+25 4.580936128682278508e+00
6.199999999999999931e-07 4.671614553307936042e+25 4.580731724119397441e+00
6.300000000000000033e-07 4.666186649453245152e+25 4.580939766201974628e+00
6.400000000000000134e-07 4.660358956039818259e+25 4.580735743018117034e+00
6.500000000000000235e-07 4.654952362100288605e+25 4.580946032225575948e+00
6.600000000000000337e-07 4.649146891702078266e+25 4.580742263742757281e+00
6.700000000000000438e-07 4.643382833471405178e+25 4.580397509384948052e+00
6.800000000000000539e-07 4.637984605629717421e+25 4.580749747678622974e+00
6.900000000000000641e-07 4.632244649680834794e+25 4.580405385082843672e+00
6.999999999999999683e-07 4.626867487840166609e+25 4.580757894839802447e+00
7.099999999999999785e-07 4.621151527610099696e+25 4.580413918480395807e+00
7.199999999999999886e-07 4.615800044542625507e+25 4.580764625852692618e+00
7.299999999999999987e-07 4.610105415707671617e+25 4.580423249882592529e+00
7.400000000000000089e-07 4.604399454271430404e+25 4.580218485312967935e+00
7.500000000000000190e-07 4.599108205252321639e+25 4.580433557623686980e+00
7.600000000000000291e-07 4.593425964954309167e+25 4.580229193354526274e+00
7.700000000000000393e-07 4.588155321470463759e+25 4.580444492978587689e+00
7.800000000000000494e-07 4.582501123877642217e+25 4.580238534330907996e+00
7.900000000000000595e-07 4.577255298834044694e+25 4.580454402173010031e+00
7.999999999999999638e-07 4.571617995236973331e+25 4.580250618088490988e+00
8.099999999999999739e-07 4.566394691288017436e+25 4.580466889518183926e+00
8.199999999999999841e-07 4.560782881584193322e+25 4.580263696556072794e+00
8.299999999999999942e-07 4.555206371153753591e+25 4.579923897916645004e+00
8.400000000000000043e-07 4.549991119615229491e+25 4.580277366229659641e+00
8.500000000000000145e-07 4.544439787748445304e+25 4.579938157126715481e+00
8.600000000000000246e-07 4.539246708266640140e+25 4.580292050496775680e+00
8.700000000000000347e-07 4.533716481452772893e+25 4.579950594802156161e+00
8.800000000000000449e-07 4.528545060120239938e+25 4.580307315900714826e+00
8.900000000000000550e-07 4.523039720673637002e+25 4.579966462342686562e+00
9.000000000000000652e-07 4.517517829485828862e+25 4.579766706855659564e+00
9.099999999999999694e-07 4.512405259015268226e+25 4.579982898581002715e+00
9.199999999999999795e-07 4.506908065824624706e+25 4.579783784274494174e+00
9.299999999999999897e-07 4.501789442874929515e+25 4.580138904441819925e+00
9.399999999999999998e-07 4.496340243565483232e+25 4.579801418445884842e+00
9.500000000000000100e-07 4.491245355219733110e+25 4.580157206734551956e+00
9.600000000000001260e-07 4.485816295963186268e+25 4.579819835418033946e+00
9.700000000000000302e-07 4.480380263164959004e+25 4.579616665660191543e+00
9.799999999999999345e-07 4.475342548897693970e+25 4.579836955772186080e+00
9.900000000000000505e-07 4.469922045313709549e+25 4.579636215671960997e+00
9.999999999999999547e-07 4.464905577216821272e+25 4.579856887670518795e+00
1.010000000000000071e-06 4.459509248861250374e+25 4.579656811386321635e+00
1.019999999999999975e-06 4.454511794516669466e+25 4.579877573046621464e+00
1.030000000000000091e-06 4.449137397007201416e+25 4.579677880388989486e+00
1.039999999999999995e-06 4.443799092139283989e+25 4.579341941592889320e+00
1.050000000000000111e-06 4.438808379531886669e+25 4.579699688390321377e+00
1.060000000000000016e-06 4.433491769366359487e+25 4.579364102117894575e+00
1.069999999999999920e-06 4.428524105208951327e+25 4.579722543815488933e+00
1.080000000000000036e-06 4.423226950589650844e+25 4.579386999769250899e+00
1.089999999999999940e-06 4.417918306538445613e+25 4.579188136142923859e+00
1.100000000000000056e-06 4.413006511658711821e+25 4.579410961206539454e+00
1.109999999999999960e-06 4.407717166005560584e+25 4.579212168041181918e+00
1.120000000000000076e-06 4.402826320026575660e+25 4.579432935673041882e+00
1.129999999999999981e-06 4.397560056040170099e+25 4.579237291110336727e+00
1.140000000000000097e-06 4.392662629656635516e+25 4.579596803588337650e+00
1.150000000000000001e-06 4.387442484945578278e+25 4.579262849004123836e+00
1.160000000000000117e-06 4.382208755397096023e+25 4.579065054203754315e+00
1.170000000000000021e-06 4.377366276288172847e+25 4.579289169373650381e+00
1.179999999999999925e-06 4.372153504874054788e+25 4.579091777723757417e+00
1.190000000000000041e-06 4.367333261547372100e+25 4.579316613836622807e+00
1.199999999999999946e-06 4.362139192497614951e+25 4.579119263140915663e+00
1.210000000000000062e-06 4.357338931598763011e+25 4.579344464211279941e+00
1.219999999999999966e-06 4.352167678569734204e+25 4.579147869545733940e+00
1.230000000000000082e-06 4.347029208320989023e+25 4.578814732691290246e+00
1.239999999999999986e-06 4.342234427029452419e+25 4.579176850413792188e+00
1.250000000000000102e-06 4.337116405383145832e+25 4.578844050793740905e+00
1.260000000000000007e-06 4.332341331958882152e+25 4.579206557426141799e+00
1.270000000000000123e-06 4.327245789042300595e+25 4.578874482183980632e+00
1.280000000000000027e-06 4.322134422305586165e+25 4.578678333314653237e+00
1.289999999999999931e-06 4.317388463707327422e+25 4.579043864152852805e+00
1.300000000000000047e-06 4.312323934969202267e+25 4.578709866700441111e+00
1.309999999999999951e-06 4.307595371075311651e+25 4.579075372083281081e+00
1.320000000000000067e-06 4.302551003864269583e+25 4.578741707809947492e+00
1.329999999999999972e-06 4.297841882910009929e+25 4.579107582596895654e+00
1.340000000000000088e-06 4.292817596422873562e+25 4.578774249523464235e+00
1.349999999999999992e-06 4.287778966455194467e+25 4.578581973386888215e+00
1.360000000000000108e-06 4.283123493936010951e+25 4.578807495004639350e+00
1.370000000000000012e-06 4.278104803002970704e+25 4.578615604618350154e+00
1.380000000000000128e-06 4.273470594632848942e+25 4.578841893811769204e+00
1.390000000000000032e-06 4.268469629476689404e+25 4.578649950735079521e+00
1.399999999999999937e-06 4.263505512677738182e+25 4.578317382727173701e+00
1.410000000000000053e-06 4.258873184311387103e+25 4.578685018239296411e+00
1.419999999999999957e-06 4.253928666096936569e+25 4.578352795117435647e+00
1.430000000000000073e-06 4.249317324726573288e+25 4.578721276053374645e+00
1.439999999999999977e-06 4.244366138564245979e+25 4.578527537072988096e+00
1.450000000000000093e-06 4.239450699619446330e+25 4.578198320681658551e+00
1.459999999999999997e-06 4.234865780561236880e+25 4.578564451786983902e+00
1.470000000000000113e-06 4.229969614565975054e+25 4.578235578034139053e+00
1.480000000000000018e-06 4.225405360428788426e+25 4.578602568839857057e+00
1.490000000000000134e-06 4.220526246712453005e+25 4.578273546742253508e+00
1.500000000000000038e-06 4.215980438516007685e+25 4.578640913751242714e+00
1.509999999999999942e-06 4.211120364051157520e+25 4.578312207901731767e+00
1.520000000000000058e-06 4.206248674090504231e+25 4.578120178321150036e+00
1.529999999999999963e-06 4.201751709529368817e+25 4.578351546216927304e+00
1.540000000000000079e-06 4.196898901587138909e+25 4.578159889077161537e+00
1.549999999999999983e-06 4.192398425975411651e+25 4.578530644682860640e+00
1.560000000000000099e-06 4.187586090336788861e+25 4.578200262394354958e+00
1.570000000000000003e-06 4.182761489366461515e+25 4.578011339025533033e+00
1.580000000000000119e-06 4.178310065585579077e+25 4.578241294852304577e+00
1.590000000000000023e-06 4.173504143469740770e+25 4.578052743717357487e+00
1.599999999999999928e-06 4.169070684990241161e+25 4.578282991502861776e+00
1.610000000000000044e-06 4.164283385332913281e+25 4.578094814896180864e+00
1.619999999999999948e-06 4.159529608172284774e+25 4.577765646453396009e+00
1.630000000000000064e-06 4.155099060023476032e+25 4.578137561171534919e+00
1.639999999999999968e-06 4.150363756131017475e+25 4.577808715229515713e+00
1.650000000000000084e-06 4.145951025610791022e+25 4.578180993873548488e+00
1.659999999999999988e-06 4.141210680730958205e+25 4.577991000262996657e+00
1.670000000000000104e-06 4.136496347129310073e+25 4.577667811422631239e+00
1.680000000000000009e-06 4.132112714442518603e+25 4.578038726378448331e+00
1.690000000000000125e-06 4.127421033074392793e+25 4.577712659892651637e+00
1.700000000000000029e-06 4.123054971610469571e+25 4.578083947862260139e+00
1.709999999999999933e-06 4.118381417448117733e+25 4.577758198276585588e+00
1.720000000000000049e-06 4.113696311743597767e+25 4.577569084774153474e+00
1.729999999999999953e-06 4.109379303167103653e+25 4.577804998358428357e+00
1.740000000000000069e-06 4.104709663539569470e+25 4.577618184009686786e+00
1.749999999999999974e-06 4.100410218171926331e+25 4.577851894118057707e+00
1.760000000000000090e-06 4.095758374327731388e+25 4.577665448501131884e+00
1.769999999999999994e-06 4.091118203277098962e+25 4.577476994128645948e+00
1.780000000000000110e-06 4.086841821368390306e+25 4.577713359462594056e+00
1.790000000000000014e-06 4.082219254236389370e+25 4.577525272859142902e+00
1.800000000000000130e-06 4.077955420051779880e+25 4.577765200650598665e+00
1.810000000000000035e-06 4.073350372828675748e+25 4.577577480370846885e+00
1.819999999999999939e-06 4.068774946140871311e+25 4.577253188001174422e+00
1.830000000000000055e-06 4.064520108470014168e+25 4.577627023502342851e+00
1.839999999999999959e-06 4.059962049022948073e+25 4.577303018903491783e+00
1.850000000000000075e-06 4.055723964177682044e+25 4.577677193317488680e+00
1.859999999999999979e-06 4.051160291389018428e+25 4.577491977666504397e+00
1.870000000000000095e-06 4.046630904839967100e+25 4.577166560316022093e+00
1.880000000000000000e-06 4.042415480269105687e+25 4.577543140875937056e+00
1.890000000000000116e-06 4.037899007940170805e+25 4.577221359668414813e+00
1.900000000000000020e-06 4.033700230710928918e+25 4.577598288031957452e+00
1.909999999999999924e-06 4.029203203727593521e+25 4.577272837413945972e+00
1.920000000000000252e-06 4.024693960864909235e+25 4.577089091765027540e+00
1.930000000000000156e-06 4.020543197410466764e+25 4.577325597548491665e+00
1.940000000000000060e-06 4.016051046437314493e+25 4.577142235505793799e+00
1.949999999999999965e-06 4.011893978776996174e+25 4.577517526585177521e+00
1.959999999999999869e-06 4.007441573914447615e+25 4.577196034386317613e+00
1.970000000000000197e-06 4.002969188603359319e+25 4.577013154298388287e+00
1.980000000000000101e-06 3.998860993535093429e+25 4.577253847196743664e+00
1.990000000000000005e-06 3.994409350933511960e+25 4.577070507073803363e+00
1.999999999999999909e-06 3.990317630343441056e+25 4.577308945425494713e+00
2.010000000000000237e-06 3.985882642429348940e+25 4.577125977566694814e+00
2.020000000000000142e-06 3.981479147231684223e+25 4.576801985727758648e+00
2.030000000000000046e-06 3.977384131783855932e+25 4.577185447884326130e+00
2.039999999999999950e-06 3.972974556805257807e+25 4.577000228829962936e+00
2.049999999999999854e-06 3.968597646374338835e+25 4.576679898080482367e+00
2.060000000000000182e-06 3.964528864932248554e+25 4.577057313202301359e+00
2.070000000000000086e-06 3.960166102782749520e+25 4.576736603007168114e+00
2.079999999999999991e-06 3.956115103475826785e+25 4.577115010379917415e+00
2.089999999999999895e-06 3.951764304871683666e+25 4.576797951428534184e+00
2.100000000000000223e-06 3.947406183342801591e+25 4.576614207130492495e+00
2.110000000000000127e-06 3.943376191498043808e+25 4.576994980381630107e+00
2.120000000000000031e-06 3.939054443584219852e+25 4.576672473566575583e+00
2.129999999999999935e-06 3.935037934255651247e+25 4.577057607236913128e+00
2.139999999999999840e-06 3.930732320052742012e+25 4.576735370680193427e+00
2.150000000000000167e-06 3.926412431123986376e+25 4.576554116114866844e+00
2.160000000000000072e-06 3.922445709632860823e+25 4.576798029366312193e+00
2.169999999999999976e-06 3.918142243287563250e+25 4.576614596680323999e+00
2.179999999999999880e-06 3.914186817168383280e+25 4.576862100945930933e+00
2.190000000000000208e-06 3.909899385166154182e+25 4.576679024555467379e+00
2.200000000000000112e-06 3.905619928427246352e+25 4.576498395923011664e+00
2.210000000000000016e-06 3.901692078374476029e+25 4.576740687029829502e+00
2.219999999999999921e-06 3.897424341458108640e+25 4.576563768181984848e+00
2.230000000000000248e-06 3.893191342802642268e+25 4.576242598658013527e+00
2.240000000000000153e-06 3.889261800815915067e+25 4.576625729021709610e+00
2.250000000000000057e-06 3.885042474707861880e+25 4.576308839316062915e+00
2.259999999999999961e-06 3.881128014826071091e+25 4.576692297125337205e+00
2.269999999999999866e-06 3.876904275380888074e+25 4.576510142296235983e+00
2.280000000000000193e-06 3.872712240961418829e+25 4.576192947661469113e+00
2.290000000000000098e-06 3.868816061853089833e+25 4.576580224890174797e+00
2.300000000000000002e-06 3.864637548305344329e+25 4.576260099330363040e+00
2.309999999999999906e-06 3.860760217006339022e+25 4.576644395810415489e+00
2.320000000000000234e-06 3.856594971682002686e+25 4.576328491795448095e+00
2.330000000000000138e-06 3.852417272704198337e+25 4.576149744690722443e+00
2.340000000000000042e-06 3.848562230793504454e+25 4.576531985327499719e+00
2.349999999999999947e-06 3.844417343718647283e+25 4.576218423954308889e+00
2.359999999999999851e-06 3.840265083064101211e+25 4.576038039230368781e+00
2.370000000000000179e-06 3.836449132170459322e+25 4.576288302657591345e+00
2.380000000000000083e-06 3.832309711901454358e+25 4.576107636428878855e+00
2.389999999999999987e-06 3.828512292604375482e+25 4.576354869902501399e+00
2.399999999999999891e-06 3.824383855459948404e+25 4.576177783442914482e+00
2.410000000000000219e-06 3.820266944877533454e+25 4.575999957399095486e+00
2.420000000000000123e-06 3.816489370348586426e+25 4.576251651112156260e+00
2.430000000000000028e-06 3.812387824289032213e+25 4.576071611613304668e+00
2.439999999999999932e-06 3.808626552379783487e+25 4.576319699550598585e+00
2.450000000000000260e-06 3.804536014174862921e+25 4.576143184432307720e+00
2.460000000000000164e-06 3.800478425924957747e+25 4.575827656387580156e+00
2.470000000000000068e-06 3.796713601004819570e+25 4.576215295028942087e+00
2.479999999999999972e-06 3.792649406750874883e+25 4.576038461530862911e+00
2.489999999999999877e-06 3.788610718852027631e+25 4.575723926779417638e+00
2.500000000000000205e-06 3.784871014872483920e+25 4.576111488378669989e+00
2.510000000000000109e-06 3.780847057995869286e+25 4.575797196797100952e+00
2.520000000000000013e-06 3.777123739295048471e+25 4.576185621725658237e+00
2.529999999999999917e-06 3.773114036235775569e+25 4.575874143543563477e+00
2.540000000000000245e-06 3.769090755279277937e+25 4.575698619953180390e+00
2.550000000000000149e-06 3.765386156763836928e+25 4.576086982725226626e+00
2.560000000000000054e-06 3.761396319321782247e+25 4.575772833372421466e+00
2.569999999999999958e-06 3.757398341241224167e+25 4.575597177144504535e+00
2.579999999999999862e-06 3.753732074031362366e+25 4.575848136802493471e+00
2.590000000000000190e-06 3.749744371374953165e+25 4.575675797488490737e+00
2.600000000000000094e-06 3.746095530013801946e+25 4.575923997397638665e+00
2.609999999999999998e-06 3.742121881123572528e+25 4.575751998211497806e+00
2.619999999999999903e-06 3.738155559937724397e+25 4.575579895840174771e+00
2.630000000000000230e-06 3.734526880728732920e+25 4.575828738352240244e+00
2.640000000000000135e-06 3.730574542020947855e+25 4.575656970139692525e+00
2.650000000000000039e-06 3.726648603140714433e+25 4.575343823028726220e+00
