# z (um)	 Electron density (m^-3)
0.000000000000000000e+00 3.397394542469752108e+25 3.185131915318713425e+00
1.000000000000000021e-08 3.395766483540395624e+25 3.185166196278757855e+00
2.000000000000000042e-08 3.393899974448611917e+25 3.185209875524499523e+00
3.000000000000000394e-08 3.392275475382235635e+25 3.185243801971124444e+00
4.000000000000000084e-08 3.390720563361732861e+25 3.185166498890199538e+00
4.999999999999999774e-08 3.389100570334414563e+25 3.185200594102396643e+00
6.000000000000000787e-08 3.387480689402351815e+25 3.185234474919857117e+00
7.000000000000000477e-08 3.385690892843035495e+25 3.185166672967188362e+00
8.000000000000000167e-08 3.384074043518898674e+25 3.185200797489152968e+00
8.999999999999999857e-08 3.382458894437335544e+25 3.185234708381410762e+00
9.999999999999999547e-08 3.380845453868236054e+25 3.185268405965961058e+00
1.100000000000000056e-07 3.379062061271446748e+25 3.185200873572572533e+00
1.200000000000000157e-07 3.377451613424985331e+25 3.185234816109962175e+00
1.299999999999999994e-07 3.375842844220849797e+25 3.185268545935859841e+00
1.400000000000000095e-07 3.374303283687412503e+25 3.185191117964100815e+00
1.499999999999999932e-07 3.372458691151798207e+25 3.185234798457537320e+00
1.600000000000000033e-07 3.370856165515877263e+25 3.185268560792441139e+00
1.700000000000000135e-07 3.369253694325712691e+25 3.185302111283871085e+00
1.799999999999999971e-07 3.367719959642354292e+25 3.185224916705200471e+00
1.900000000000000073e-07 3.366120313861564431e+25 3.185258637754100786e+00
1.999999999999999909e-07 3.364284259320284142e+25 3.185302035262900677e+00
2.100000000000000011e-07 3.362969121541427124e+25 3.185148873013011972e+00
2.200000000000000112e-07 3.361160163795227980e+25 3.185258444384766463e+00
2.299999999999999949e-07 3.359566782585818030e+25 3.185291987987262097e+00
2.400000000000000315e-07 3.357737424984441485e+25 3.185335241175287102e+00
2.499999999999999887e-07 3.356214161173975248e+25 3.185258124741471963e+00
2.599999999999999988e-07 3.354625341381442532e+25 3.185291703222461912e+00
2.700000000000000090e-07 3.353039775583245399e+25 3.185325070919429624e+00
2.800000000000000191e-07 3.351497106965858572e+25 3.185181678659833704e+00
2.900000000000000292e-07 3.349699568323826629e+25 3.185291294193857592e+00
2.999999999999999864e-07 3.348116951422059215e+25 3.185324699677861915e+00
3.099999999999999966e-07 3.346535985343949152e+25 3.185357895691846242e+00
3.200000000000000067e-07 3.345022971136047033e+25 3.185280789401382595e+00
3.300000000000000168e-07 3.343208202050861465e+25 3.185324208953341341e+00
3.400000000000000270e-07 3.341631809376618647e+25 3.185357444613252209e+00
3.499999999999999842e-07 3.340057055630075430e+25 3.185390472391526728e+00
3.599999999999999943e-07 3.338549799780493590e+25 3.185313596153629856e+00
3.700000000000000044e-07 3.336741655077191331e+25 3.185356880798052792e+00
3.800000000000000146e-07 3.335171429343232090e+25 3.185389951605924086e+00
3.900000000000000247e-07 3.333882821667105376e+25 3.185236413319957993e+00
3.999999999999999819e-07 3.332102858039377750e+25 3.185346169875646449e+00
4.099999999999999920e-07 3.330301269110301538e+25 3.185389322349584607e+00
4.200000000000000022e-07 3.328737139645302538e+25 3.185422230738413241e+00
4.300000000000000123e-07 3.327240107665976104e+25 3.185345429783790649e+00
4.400000000000000224e-07 3.325678677984548696e+25 3.185378514412450013e+00
4.500000000000000326e-07 3.324118866101635216e+25 3.185411391991164631e+00
4.599999999999999898e-07 3.322602928739918723e+25 3.185267904921422311e+00
4.699999999999999999e-07 3.320834103425828864e+25 3.185377703195984456e+00
4.800000000000000630e-07 3.319278714152502508e+25 3.185410624857082151e+00
4.899999999999999672e-07 3.317724925474153908e+25 3.185443340039498139e+00
4.999999999999999774e-07 3.316216376774873350e+25 3.185299785048306465e+00
5.099999999999999875e-07 3.314453757742363626e+25 3.185409742582721915e+00
5.199999999999999976e-07 3.312904353419639698e+25 3.185442503327251984e+00
5.300000000000000078e-07 3.311632997202664003e+25 3.185288715172572616e+00
5.400000000000000179e-07 3.309640745315669785e+25 3.185408746682177217e+00
5.500000000000000281e-07 3.308095713404489389e+25 3.185441553916190216e+00
5.600000000000000382e-07 3.306552255611063204e+25 3.185474156654722222e+00
5.700000000000000483e-07 3.305286212920272829e+25 3.185320275116896749e+00
5.800000000000000585e-07 3.303534409503460340e+25 3.185430200549229873e+00
5.899999999999999627e-07 3.301761507946448132e+25 3.185473148488491280e+00
5.999999999999999728e-07 3.300224033507752826e+25 3.185505597826226776e+00
6.099999999999999830e-07 3.298964914945285511e+25 3.185351626861622432e+00
6.199999999999999931e-07 3.297219293635597373e+25 3.185461714376419007e+00
6.300000000000000033e-07 3.295452780063724317e+25 3.185504540678497420e+00
6.400000000000000134e-07 3.294196117817567110e+25 3.185350584409795793e+00
6.500000000000000235e-07 3.292455261412402233e+25 3.185460550810263580e+00
6.600000000000000337e-07 3.290926365703512654e+25 3.185493032803250024e+00
6.700000000000000438e-07 3.289166172199996611e+25 3.185535739091343022e+00
6.800000000000000539e-07 3.287914764927116543e+25 3.185381697129582967e+00
6.900000000000000641e-07 3.286179987086430506e+25 3.185491824713400533e+00
6.999999999999999683e-07 3.284656938589573824e+25 3.185524160095468460e+00
7.099999999999999785e-07 3.283409382279186188e+25 3.185370064666050993e+00
7.199999999999999886e-07 3.281658406907262784e+25 3.185412621128159483e+00
7.299999999999999987e-07 3.279929690568762422e+25 3.185522908259465158e+00
7.400000000000000089e-07 3.278412469948066307e+25 3.185555098113788119e+00
7.500000000000000190e-07 3.277170101053793431e+25 3.185400918712927965e+00
7.600000000000000291e-07 3.275214023410987711e+25 3.185521557540511584e+00
7.700000000000000393e-07 3.273701029965269745e+25 3.185553803746321577e+00
7.800000000000000494e-07 3.272189554441824611e+25 3.185585850096702476e+00
7.900000000000000595e-07 3.270952303709812935e+25 3.185431588809272796e+00
7.999999999999999638e-07 3.269234052239020117e+25 3.185541841219835302e+00
8.099999999999999739e-07 3.267495352964703302e+25 3.185584519268792825e+00
8.199999999999999841e-07 3.266261997335768986e+25 3.185430277570292290e+00
8.299999999999999942e-07 3.264759059425738928e+25 3.185462086555770345e+00
8.400000000000000043e-07 3.263046753851684505e+25 3.185572499863756235e+00
8.500000000000000145e-07 3.261314193917060558e+25 3.185615068019646667e+00
8.600000000000000246e-07 3.260085937534569356e+25 3.185460750486485360e+00
8.700000000000000347e-07 3.258378229567737079e+25 3.185571040372093599e+00
8.800000000000000449e-07 3.256880743706336785e+25 3.185602999145128233e+00
8.900000000000000550e-07 3.255425728964100686e+25 3.185459329004890705e+00
9.000000000000000652e-07 3.253931102816602097e+25 3.185491067411348798e+00
9.099999999999999694e-07 3.252229293907416381e+25 3.185601517794351079e+00
9.199999999999999795e-07 3.250737484114672086e+25 3.185633344164973568e+00
9.299999999999999897e-07 3.249518052127160243e+25 3.185478906782286845e+00
9.399999999999999998e-07 3.247799039784192183e+25 3.185521232608196751e+00
9.500000000000000100e-07 3.246104710843937829e+25 3.185631841850244950e+00
9.600000000000001260e-07 3.244618592645151287e+25 3.185663536869242307e+00
9.700000000000000302e-07 3.243404237897963347e+25 3.185509026917120234e+00
9.799999999999999345e-07 3.241691299833900784e+25 3.185551247927813190e+00
9.900000000000000505e-07 3.240001278065950136e+25 3.185662015842603445e+00
9.999999999999999547e-07 3.238790718927114394e+25 3.185507531611992071e+00
1.010000000000000071e-06 3.237311427106402736e+25 3.185539002978940992e+00
1.019999999999999975e-06 3.235625781229035953e+25 3.185649576040968434e+00
1.030000000000000091e-06 3.233920282703714583e+25 3.185692049802343107e+00
1.039999999999999995e-06 3.232714700857849876e+25 3.185537498206017837e+00
1.050000000000000111e-06 3.231240958872282002e+25 3.185568846895037609e+00
1.060000000000000016e-06 3.229562610726317902e+25 3.185679582196953685e+00
1.069999999999999920e-06 3.227863026785110929e+25 3.185721960845683931e+00
1.080000000000000036e-06 3.226662338320611408e+25 3.185567348268826038e+00
1.089999999999999940e-06 3.225194065820204573e+25 3.185598580716240580e+00
1.100000000000000056e-06 3.223519849110933703e+25 3.185709481457878134e+00
1.109999999999999960e-06 3.222322750516939125e+25 3.185554834510150535e+00
1.120000000000000076e-06 3.220630324983311344e+25 3.185597098404605365e+00
1.129999999999999981e-06 3.219167530997620537e+25 3.185628216607341745e+00
1.140000000000000097e-06 3.217499011016300443e+25 3.185739281156451774e+00
1.150000000000000001e-06 3.216306790899072388e+25 3.185584575417717446e+00
1.160000000000000117e-06 3.214620236364932682e+25 3.185626747842666084e+00
1.170000000000000021e-06 3.212957693325617992e+25 3.185737685687888288e+00
1.179999999999999925e-06 3.211769165236237774e+25 3.185583011492120864e+00
1.190000000000000041e-06 3.210314261809186796e+25 3.185614207606232373e+00
1.199999999999999946e-06 3.208860826955682384e+25 3.185645212283722216e+00
1.210000000000000062e-06 3.206975209769662534e+25 3.185767381240077967e+00
1.219999999999999966e-06 3.205791588169434141e+25 3.185612645874415616e+00
1.230000000000000082e-06 3.204342163010606722e+25 3.185643726929392017e+00
1.239999999999999986e-06 3.202894194881061946e+25 3.185674618012839243e+00
1.250000000000000102e-06 3.201014657803846007e+25 3.185796968084769087e+00
1.260000000000000007e-06 3.199835887671947011e+25 3.185642176654857050e+00
1.270000000000000123e-06 3.198391876443605366e+25 3.185673149251221137e+00
1.280000000000000027e-06 3.196950836705975780e+25 3.185703934164539231e+00
1.289999999999999931e-06 3.195343393408018038e+25 3.185640572045561392e+00
1.300000000000000047e-06 3.193903310643685881e+25 3.185671630837393131e+00
1.309999999999999951e-06 3.192464635831477016e+25 3.185702503486977033e+00
1.320000000000000067e-06 3.190821704724419784e+25 3.185813731145861194e+00
1.329999999999999972e-06 3.189651200415481193e+25 3.185658867832883434e+00
1.340000000000000088e-06 3.187990524904480973e+25 3.185701034565004530e+00
1.349999999999999992e-06 3.186557158700624527e+25 3.185731812458779011e+00
1.360000000000000108e-06 3.184919749087047385e+25 3.185843210042959672e+00
1.370000000000000012e-06 3.183753950748441156e+25 3.185688306779174805e+00
1.380000000000000128e-06 3.182098941458117461e+25 3.185730402208345247e+00
1.390000000000000032e-06 3.180672361749760504e+25 3.185761087760384136e+00
1.399999999999999937e-06 3.179305093275980681e+25 3.185686821436937155e+00
1.410000000000000053e-06 3.177879316466645804e+25 3.185717710162529137e+00
1.419999999999999957e-06 3.176454952405884474e+25 3.185748413578655125e+00
1.430000000000000073e-06 3.174807130769201370e+25 3.185790323831394932e+00
1.439999999999999977e-06 3.173444804227349162e+25 3.185716273182809033e+00
1.450000000000000093e-06 3.172024300440517822e+25 3.185747066201815247e+00
1.459999999999999997e-06 3.170605203745614154e+25 3.185777674023624773e+00
1.470000000000000113e-06 3.168758475055853244e+25 3.185900614940888165e+00
1.480000000000000018e-06 3.167605617849426676e+25 3.185745670983298972e+00
1.490000000000000134e-06 3.166190350341693600e+25 3.185776369357470550e+00
1.500000000000000038e-06 3.164776479678735319e+25 3.185806884336841893e+00
1.509999999999999942e-06 3.163424425983354539e+25 3.185732810277169147e+00
1.520000000000000058e-06 3.161788940300177494e+25 3.185775026170841961e+00
1.529999999999999963e-06 3.160378907711521101e+25 3.185805637638258858e+00
1.540000000000000079e-06 3.158970251172604863e+25 3.185836068512224006e+00
1.549999999999999983e-06 3.157621540331672215e+25 3.185762215260642627e+00
1.560000000000000099e-06 3.155991619800508951e+25 3.185804371501689047e+00
1.570000000000000003e-06 3.154586738105587932e+25 3.185834906245402998e+00
1.580000000000000119e-06 3.153183214621459692e+25 3.185865262664572928e+00
1.590000000000000023e-06 3.151839292194688530e+25 3.185791635966680246e+00
1.599999999999999928e-06 3.150438040450654717e+25 3.185822205428136655e+00
1.610000000000000044e-06 3.148815102935574666e+25 3.185864203343800050e+00
1.619999999999999948e-06 3.147679999911927171e+25 3.185708825744260064e+00
1.630000000000000064e-06 3.146079049071744219e+25 3.185821088892193398e+00
1.639999999999999968e-06 3.144682878611873151e+25 3.185851587931627371e+00
1.650000000000000084e-06 3.143065394266301953e+25 3.185893534071866817e+00
1.659999999999999988e-06 3.141730087192070392e+25 3.185819965116071462e+00
1.670000000000000104e-06 3.140337600784441927e+25 3.185850570049448827e+00
1.680000000000000009e-06 3.138946463526529198e+25 3.185880996496335271e+00
1.690000000000000125e-06 3.137556685578494813e+25 3.185911244716631341e+00
1.700000000000000029e-06 3.136003842491183307e+25 3.185849537920828922e+00
1.709999999999999933e-06 3.134616422269064142e+25 3.185880070240301620e+00
1.720000000000000049e-06 3.133230345803150303e+25 3.185910425051246442e+00
1.729999999999999953e-06 3.131847131449869244e+25 3.185940602916048636e+00
1.740000000000000069e-06 3.130299409049280455e+25 3.185879133277905506e+00
1.749999999999999974e-06 3.128917036748192884e+25 3.185909597984305286e+00
1.760000000000000090e-06 3.127535999705683055e+25 3.185939887270286874e+00
1.769999999999999994e-06 3.126416187716649511e+25 3.185784441474257989e+00
1.780000000000000110e-06 3.124835075295469802e+25 3.185897031854234562e+00
1.790000000000000014e-06 3.123236368570407181e+25 3.185939178897891910e+00
1.800000000000000130e-06 3.121860374377931927e+25 3.185969410892649734e+00
1.810000000000000035e-06 3.120745043608682541e+25 3.185813957898224746e+00
1.819999999999999939e-06 3.119169174718304193e+25 3.185926729832164739e+00
1.830000000000000055e-06 3.117796728983621841e+25 3.185957011306058018e+00
1.839999999999999959e-06 3.116206349031592079e+25 3.185999024390069323e+00
1.850000000000000075e-06 3.115095456526083166e+25 3.185843569976520850e+00
1.859999999999999979e-06 3.113524779857833436e+25 3.185956526365774977e+00
1.870000000000000095e-06 3.112157260161163955e+25 3.185986760914842453e+00
1.880000000000000000e-06 3.110829174471468011e+25 3.185843229214902372e+00
1.890000000000000116e-06 3.109262489014360924e+25 3.185956071911007825e+00
1.900000000000000020e-06 3.107898509159565630e+25 3.185986431077984182e+00
1.909999999999999924e-06 3.106535821520524578e+25 3.186016619612504375e+00
1.920000000000000252e-06 3.105432427883567073e+25 3.185861173797519541e+00
1.930000000000000156e-06 3.103650795741294697e+25 3.185986130034988317e+00
1.940000000000000060e-06 3.102291655286015796e+25 3.186016443904145401e+00
1.949999999999999965e-06 3.100935294999183116e+25 3.186046587964173948e+00
1.959999999999999869e-06 3.099836195926964205e+25 3.185891144594604540e+00
1.970000000000000197e-06 3.098060009094228424e+25 3.186016299617168812e+00
1.980000000000000101e-06 3.096705699453092149e+25 3.186046571829221019e+00
1.990000000000000005e-06 3.095352678536722474e+25 3.186076675776756684e+00
1.999999999999999909e-06 3.094257885874345347e+25 3.185921239470312916e+00
2.010000000000000237e-06 3.092706296166889776e+25 3.186034566414821967e+00
2.020000000000000142e-06 3.091137736112653847e+25 3.186076832881328258e+00
2.030000000000000046e-06 3.090046262826226429e+25 3.185921479556686808e+00
2.039999999999999950e-06 3.088699171314843721e+25 3.185951480746697762e+00
2.049999999999999854e-06 3.087152704283529840e+25 3.186064999169967660e+00
2.060000000000000182e-06 3.085589390740343015e+25 3.186107253361471159e+00
2.070000000000000086e-06 3.084503739875191532e+25 3.185951919405053623e+00
2.079999999999999991e-06 3.083161495832756588e+25 3.185981897331059187e+00
2.089999999999999895e-06 3.081620101237563081e+25 3.186095612440057678e+00
2.100000000000000223e-06 3.080280252234343117e+25 3.186125729692313779e+00
2.110000000000000127e-06 3.078979132690141465e+25 3.185982551838206778e+00
2.120000000000000031e-06 3.077641689235216220e+25 3.186012511578665496e+00
2.129999999999999935e-06 3.076105304688996482e+25 3.186126425218096525e+00
2.139999999999999840e-06 3.074770197339310067e+25 3.186156525770119874e+00
2.150000000000000167e-06 3.073473636928208516e+25 3.186013389722387235e+00
2.160000000000000072e-06 3.072140878729638623e+25 3.186043333926848575e+00
2.169999999999999976e-06 3.070609396421174997e+25 3.186157445912797481e+00
2.179999999999999880e-06 3.069535244195376933e+25 3.186002192369298047e+00
2.190000000000000208e-06 3.068205769895464025e+25 3.186032212013070186e+00
2.200000000000000112e-06 3.066460689412204591e+25 3.186158443977757493e+00
2.210000000000000016e-06 3.065133619706455123e+25 3.186188676823849875e+00
2.219999999999999921e-06 3.064062095448447285e+25 3.186033452678816325e+00
2.230000000000000248e-06 3.062737245557867286e+25 3.186063460464120034e+00
2.240000000000000153e-06 3.061214332835744134e+25 3.186177598863611404e+00
2.250000000000000057e-06 3.059674987979326463e+25 3.186220129329720319e+00
2.259999999999999961e-06 3.058607609763679935e+25 3.186064941141806717e+00
2.269999999999999866e-06 3.057287422838981755e+25 3.186094945017291291e+00
2.280000000000000193e-06 3.055769416127292514e+25 3.186209289242806886e+00
2.290000000000000098e-06 3.054236575876149015e+25 3.186251833841020176e+00
2.300000000000000002e-06 3.053173348280992274e+25 3.186096691280451143e+00
2.309999999999999906e-06 3.051857827993681032e+25 3.186126701531349692e+00
2.320000000000000234e-06 3.050344727411419918e+25 3.186241259341195953e+00
2.330000000000000138e-06 3.049284571911166901e+25 3.186086162854199433e+00
2.340000000000000042e-06 3.047756388587716357e+25 3.186128738615699341e+00
2.349999999999999947e-06 3.046445547341469054e+25 3.186158763164368857e+00
2.359999999999999851e-06 3.044937355740445819e+25 3.186273539215228379e+00
2.370000000000000179e-06 3.043881336648582120e+25 3.186118500621089478e+00
2.380000000000000083e-06 3.042358139791723687e+25 3.186161106781502994e+00
2.389999999999999987e-06 3.041051899352782886e+25 3.186191150511795911e+00
2.399999999999999891e-06 3.039549998504079939e+25 3.186306146487847268e+00
2.410000000000000219e-06 3.038498025476902641e+25 3.186151168684260959e+00
2.420000000000000123e-06 3.037194998884692910e+25 3.186181313895752876e+00
2.430000000000000028e-06 3.035678026067446524e+25 3.186223872746857921e+00
2.439999999999999932e-06 3.034179420536577001e+25 3.186339088417851961e+00
2.450000000000000260e-06 3.033131438345993281e+25 3.186184173184556379e+00
2.460000000000000164e-06 3.031832883906737127e+25 3.186214342101318486e+00
2.470000000000000068e-06 3.030535533418661544e+25 3.186244361074794806e+00
2.479999999999999972e-06 3.029078109126640263e+25 3.186187179622246290e+00
2.489999999999999877e-06 3.027782819897499794e+25 3.186217526535433553e+00
2.500000000000000205e-06 3.026488714432496101e+25 3.186247725012866017e+00
2.510000000000000109e-06 3.025197265583919238e+25 3.186277775854747141e+00
2.520000000000000013e-06 3.023744374954969684e+25 3.186220872202908616e+00
2.529999999999999917e-06 3.022453516471988787e+25 3.186251255442867691e+00
2.540000000000000245e-06 3.021163839161140064e+25 3.186281492913743740e+00
2.550000000000000149e-06 3.019875357331095464e+25 3.186311585439894678e+00
2.560000000000000054e-06 3.018640976929083362e+25 3.186242307012554065e+00
2.569999999999999958e-06 3.017140624332303543e+25 3.186285395535052523e+00
2.579999999999999862e-06 3.015855429089312912e+25 3.186315681254786369e+00
2.590000000000000190e-06 3.014571430715953043e+25 3.186345824390679926e+00
2.600000000000000094e-06 3.013341284793313277e+25 3.186276825646700228e+00
2.609999999999999998e-06 3.012059276764486359e+25 3.186307238037889178e+00
2.619999999999999903e-06 3.010565088151274070e+25 3.186350320049771145e+00
2.630000000000000230e-06 3.009287050191809990e+25 3.186380520612213108e+00
2.640000000000000135e-06 3.008061145548049597e+25 3.186311804958243510e+00
2.650000000000000039e-06 3.006783608303423866e+25 3.186342277515716415e+00
