# z (um)	 Electron density (m^-3)
0.000000000000000000e+00 1.015317187320981297e+28 3.065569144401460555e+00
1.000000000000000021e-08 8.684115456156826957e+27 3.051124570224821309e+00
2.000000000000000042e-08 7.604601175358533522e+27 3.035434380174416358e+00
3.000000000000000394e-08 6.781303025390052714e+27 3.020014204110087697e+00
4.000000000000000084e-08 6.134600021676580846e+27 3.004991871872100262e+00
4.999999999999999774e-08 5.614152330146801077e+27 2.991499806622051505e+00
6.000000000000000787e-08 5.188520054856878530e+27 2.978732024941544321e+00
7.000000000000000477e-08 4.832365048065075091e+27 2.967193988896777324e+00
8.000000000000000167e-08 4.531268030668249584e+27 2.956679904736991826e+00
8.999999999999999857e-08 4.271359133464471292e+27 2.947605741659633072e+00
9.999999999999999547e-08 4.045561187978673028e+27 2.939281422051058357e+00
1.100000000000000056e-07 3.846545689092166815e+27 2.932092043777240420e+00
1.200000000000000157e-07 3.670798131173671312e+27 2.925909968003359118e+00
1.299999999999999994e-07 3.512795624311870584e+27 2.920679003242405702e+00
1.400000000000000095e-07 3.370779599221037423e+27 2.915505316323486973e+00
1.499999999999999932e-07 3.241207454885864402e+27 2.911299773482877828e+00
1.600000000000000033e-07 3.123358954728987659e+27 2.907813522783330384e+00
1.700000000000000135e-07 3.015709001622043376e+27 2.904965129232368160e+00
1.799999999999999971e-07 2.916485294494183821e+27 2.901825405715050987e+00
1.900000000000000073e-07 2.824261635201433604e+27 2.900088123324649825e+00
1.999999999999999909e-07 2.738721058740198375e+27 2.897737763266140743e+00
2.100000000000000011e-07 2.659428508941043966e+27 2.896167203220422870e+00
2.200000000000000112e-07 2.585095272104117368e+27 2.894786193851214939e+00
2.299999999999999949e-07 2.514549437339984276e+27 2.893971733188881679e+00
2.400000000000000315e-07 2.449312702268064725e+27 2.892941430359472488e+00
2.499999999999999887e-07 2.387266565617415576e+27 2.892567478937069669e+00
2.599999999999999988e-07 2.329063573150828062e+27 2.891695932894905230e+00
2.700000000000000090e-07 2.274195405253453371e+27 2.891045655193520858e+00
2.800000000000000191e-07 2.221387659673680441e+27 2.890907251647419240e+00
2.900000000000000292e-07 2.171719300913341525e+27 2.890792558240685484e+00
2.999999999999999864e-07 2.124811736190314273e+27 2.890552460518285738e+00
3.099999999999999966e-07 2.079993635030106607e+27 2.890280228751232805e+00
3.200000000000000067e-07 2.037083753491272341e+27 2.890291413729695336e+00
3.300000000000000168e-07 1.995684121643209704e+27 2.890553927726065453e+00
3.400000000000000270e-07 1.956835513674625658e+27 2.890842141503681351e+00
3.499999999999999842e-07 1.919024672365007975e+27 2.890691298877632764e+00
3.599999999999999943e-07 1.883096929363107371e+27 2.891488937285471739e+00
3.700000000000000044e-07 1.848766475297119885e+27 2.891581018502220601e+00
3.800000000000000146e-07 1.815348785631549998e+27 2.891933235462574636e+00
3.900000000000000247e-07 1.783374372591016436e+27 2.892305841545837364e+00
3.999999999999999819e-07 1.753024247878198531e+27 2.892212247128785663e+00
4.099999999999999920e-07 1.723541701472594616e+27 2.892786707756441533e+00
4.200000000000000022e-07 1.695436987646004302e+27 2.892764952404871526e+00
4.300000000000000123e-07 1.667499690290028312e+27 2.893593429940453543e+00
4.400000000000000224e-07 1.641133907575295494e+27 2.893949940386635333e+00
4.500000000000000326e-07 1.615541553823931310e+27 2.894102531675962542e+00
4.599999999999999898e-07 1.590961196259088667e+27 2.894512965983233155e+00
4.699999999999999999e-07 1.566860333202685591e+27 2.894926342691290344e+00
4.800000000000000630e-07 1.543455875729582310e+27 2.895568591906871880e+00
4.899999999999999672e-07 1.520889208420460092e+27 2.896026690778473967e+00
4.999999999999999774e-07 1.499603244991695181e+27 2.896130070946560053e+00
5.099999999999999875e-07 1.478329469545858199e+27 2.896833745793857329e+00
5.199999999999999976e-07 1.457935079219859642e+27 2.896932032368507937e+00
5.300000000000000078e-07 1.437948938378388816e+27 2.897671181890661973e+00
5.400000000000000179e-07 1.418338501656324242e+27 2.898014316860023865e+00
5.500000000000000281e-07 1.399823907521177876e+27 2.898157228107249850e+00
5.600000000000000382e-07 1.381552236886743020e+27 2.899067070120335821e+00
5.700000000000000483e-07 1.363764514657087757e+27 2.899453426509165155e+00
5.800000000000000585e-07 1.346379554917041483e+27 2.899850312632461069e+00
5.899999999999999627e-07 1.329674440051844599e+27 2.900258139463434137e+00
5.999999999999999728e-07 1.313129550985936519e+27 2.900656924222531075e+00
6.099999999999999830e-07 1.297299209209998529e+27 2.901088179554904389e+00
6.199999999999999931e-07 1.281391554636688074e+27 2.901747934843949661e+00
6.300000000000000033e-07 1.266546861620503181e+27 2.901807431562683171e+00
6.400000000000000134e-07 1.251628080001919454e+27 2.902249712013934335e+00
6.500000000000000235e-07 1.237078063873354752e+27 2.902701646406345315e+00
6.600000000000000337e-07 1.223129506915409494e+27 2.903000660503971542e+00
6.700000000000000438e-07 1.209272109286782628e+27 2.903470896612495800e+00
6.800000000000000539e-07 1.195596634241267256e+27 2.904282602685085202e+00
6.900000000000000641e-07 1.182542900960789599e+27 2.904253898296914826e+00
6.999999999999999683e-07 1.169788044897295848e+27 2.904561574537867674e+00
7.099999999999999785e-07 1.157205357842688989e+27 2.905187323692071111e+00
7.199999999999999886e-07 1.144880541623899055e+27 2.905391692055577124e+00
7.299999999999999987e-07 1.132862355692290142e+27 2.905726317235909573e+00
7.400000000000000089e-07 1.121098925767185952e+27 2.906373157153935516e+00
7.500000000000000190e-07 1.109613498390782426e+27 2.906691283665838288e+00
7.600000000000000291e-07 1.098326818742206380e+27 2.906923169575437615e+00
7.700000000000000393e-07 1.087446318495402546e+27 2.907075333562204822e+00
7.800000000000000494e-07 1.076658670025744863e+27 2.907442633140863819e+00
7.900000000000000595e-07 1.065902038484517477e+27 2.907764753772080990e+00
7.999999999999999638e-07 1.055554400963726942e+27 2.908143715844524912e+00
8.099999999999999739e-07 1.045453674722606722e+27 2.908497355689235064e+00
8.199999999999999841e-07 1.035516902526198990e+27 2.908887365413696191e+00
8.299999999999999942e-07 1.025682004158278395e+27 2.909053793962141032e+00
8.400000000000000043e-07 1.016199842064355328e+27 2.909545500591648626e+00
8.500000000000000145e-07 1.006834945474428294e+27 2.909950902051693156e+00
8.600000000000000246e-07 9.974704899555863568e+26 2.910309390678087471e+00
8.700000000000000347e-07 9.884116557178793234e+26 2.910724380635710151e+00
8.800000000000000449e-07 9.795247197923853647e+26 2.910580943163788348e+00
8.900000000000000550e-07 9.709699436224009538e+26 2.911122662853371068e+00
9.000000000000000652e-07 9.621377102237258884e+26 2.911503768272717618e+00
9.099999999999999694e-07 9.539387646629378675e+26 2.911394183715696027e+00
9.199999999999999795e-07 9.454351201666950377e+26 2.912140583651010139e+00
9.299999999999999897e-07 9.374082132280527674e+26 2.912549759294039919e+00
9.399999999999999998e-07 9.294718671135390678e+26 2.912554292813269718e+00
9.500000000000000100e-07 9.214923149644411108e+26 2.912983087600236942e+00
9.600000000000001260e-07 9.140293439497932927e+26 2.913015910365431616e+00
9.700000000000000302e-07 9.063531248136877010e+26 2.913420071179751769e+00
9.799999999999999345e-07 8.988087731626406625e+26 2.913679595060393535e+00
9.900000000000000505e-07 8.915622452348897630e+26 2.914111280559597894e+00
9.999999999999999547e-07 8.844088581564556523e+26 2.914138730065700678e+00
1.010000000000000071e-06 8.772332619569615179e+26 2.914557019946432348e+00
1.019999999999999975e-06 8.702322696447034112e+26 2.914595959022530103e+00
1.030000000000000091e-06 8.634202657932382174e+26 2.915275786859982343e+00
1.039999999999999995e-06 8.567252219794954955e+26 2.915316930505224224e+00
1.050000000000000111e-06 8.501374859553230437e+26 2.915361375904681918e+00
1.060000000000000016e-06 8.434412486329097831e+26 2.916123497497990602e+00
1.069999999999999920e-06 8.370140542628250309e+26 2.916052885334696310e+00
1.080000000000000036e-06 8.306549933819186151e+26 2.916111155715936043e+00
1.089999999999999940e-06 8.245505872934176859e+26 2.916394160897497478e+00
1.100000000000000056e-06 8.183553369398237994e+26 2.916961281852871846e+00
1.109999999999999960e-06 8.123166615076533461e+26 2.916902585392751490e+00
1.120000000000000076e-06 8.063145157907555441e+26 2.917173885987777382e+00
1.129999999999999981e-06 8.004554139032485494e+26 2.917241989066780228e+00
1.140000000000000097e-06 7.946301112124604323e+26 2.917518587713565648e+00
1.150000000000000001e-06 7.888830583701397044e+26 2.918098850744350603e+00
1.160000000000000117e-06 7.833220413305011382e+26 2.918174886047764538e+00
1.170000000000000021e-06 7.777245499303932822e+26 2.918338175746439056e+00
1.179999999999999925e-06 7.723238782515805891e+26 2.918419381344765196e+00
1.190000000000000041e-06 7.669078152777225952e+26 2.918708560254298590e+00
1.199999999999999946e-06 7.616606551759046168e+26 2.918794842984787863e+00
1.210000000000000062e-06 7.563964144483598286e+26 2.919088871552240949e+00
1.219999999999999966e-06 7.512781177388824372e+26 2.919180150099169868e+00
1.230000000000000082e-06 7.461596395568445919e+26 2.919478942778456876e+00
1.239999999999999986e-06 7.410407065326782618e+26 2.919555086002866506e+00
1.250000000000000102e-06 7.360197856369184871e+26 2.919829384962564944e+00
1.260000000000000007e-06 7.311768853381846019e+26 2.919930168934775860e+00
1.270000000000000123e-06 7.263323851597272136e+26 2.920238029734328666e+00
1.280000000000000027e-06 7.215529045827188221e+26 2.920547956438311221e+00
1.289999999999999931e-06 7.169444143213722167e+26 2.920776166410411712e+00
1.300000000000000047e-06 7.121629274313379572e+26 2.921036575389305945e+00
1.309999999999999951e-06 7.076558251376396200e+26 2.921148370625414437e+00
1.320000000000000067e-06 7.031234115366624995e+26 2.921466651430711270e+00
1.329999999999999972e-06 6.986943648186412257e+26 2.921582500951541039e+00
1.340000000000000088e-06 6.943508164527685873e+26 2.921400362341138646e+00
1.349999999999999992e-06 6.898008073648824398e+26 2.921675334668522694e+00
1.360000000000000108e-06 6.856645623131662403e+26 2.921913412359789852e+00
1.370000000000000012e-06 6.814136412019120494e+26 2.922241382083934358e+00
1.380000000000000128e-06 6.771765757297153868e+26 2.922541579553458391e+00
1.390000000000000032e-06 6.729658298907938958e+26 2.922649447422804858e+00
1.399999999999999937e-06 6.689587266958962855e+26 2.922479022094869094e+00
1.410000000000000053e-06 6.649593215359390954e+26 2.922900434666438674e+00
1.419999999999999957e-06 6.608997094035807661e+26 2.923013875841579345e+00
1.430000000000000073e-06 6.569533923971983065e+26 2.923352478759010165e+00
1.439999999999999977e-06 6.531010526620693353e+26 2.923159586357933826e+00
1.450000000000000093e-06 6.492665329717112752e+26 2.923394269028921855e+00
1.459999999999999997e-06 6.454248033489040845e+26 2.923738001753254601e+00
1.470000000000000113e-06 6.416258689039988401e+26 2.924053591054754708e+00
1.480000000000000018e-06 6.380088284786269309e+26 2.923790258678386156e+00
1.490000000000000134e-06 6.343346909284271961e+26 2.924138967338381523e+00
1.500000000000000038e-06 6.305298853586407776e+26 2.924439716429465097e+00
1.509999999999999942e-06 6.270411893253381181e+26 2.924409010005815102e+00
1.520000000000000058e-06 6.235550532058029181e+26 2.924525152802412098e+00
1.529999999999999963e-06 6.199131303197296050e+26 2.924860524602098888e+00
1.540000000000000079e-06 6.165083053680079351e+26 2.924804903263444444e+00
1.549999999999999983e-06 6.130061508933765887e+26 2.925138855980124131e+00
1.560000000000000099e-06 6.096890763342415797e+26 2.925295843546053209e+00
1.570000000000000003e-06 6.063252333197374569e+26 2.925220773351459247e+00
1.580000000000000119e-06 6.029956222457152268e+26 2.925583524618288411e+00
1.590000000000000023e-06 5.996484999970929507e+26 2.925515937808263356e+00
1.599999999999999928e-06 5.965351156064769246e+26 2.925674552729592204e+00
1.610000000000000044e-06 5.931833561752488526e+26 2.926111874468983132e+00
1.619999999999999948e-06 5.900889133029644265e+26 2.925978426156305101e+00
1.630000000000000064e-06 5.868470700252436278e+26 2.926293932095640038e+00
1.639999999999999968e-06 5.838373720966525964e+26 2.926283192558535085e+00
1.650000000000000084e-06 5.807318429603980149e+26 2.926399153865660629e+00
1.659999999999999988e-06 5.777695630696213393e+26 2.926391245467240498e+00
1.670000000000000104e-06 5.746612584780195284e+26 2.926712051602667675e+00
1.680000000000000009e-06 5.717454675848302806e+26 2.926676704100733772e+00
1.690000000000000125e-06 5.686463598386672141e+26 2.927034566996608245e+00
1.700000000000000029e-06 5.658314394686569785e+26 2.926997321613113101e+00
1.709999999999999933e-06 5.628932874503724796e+26 2.927155898898516462e+00
1.720000000000000049e-06 5.601511084171824007e+26 2.927121367273003205e+00
1.729999999999999953e-06 5.572231191790233464e+26 2.927604086459236754e+00
1.740000000000000069e-06 5.544006131414029932e+26 2.927432544890292476e+00
1.749999999999999974e-06 5.516187915257544579e+26 2.927907196124868161e+00
1.760000000000000090e-06 5.488847945409939150e+26 2.927768389983949504e+00
1.769999999999999994e-06 5.461584948228837888e+26 2.928245443460453235e+00
1.780000000000000110e-06 5.435426364716585608e+26 2.927907699551218990e+00
1.790000000000000014e-06 5.408221202031376641e+26 2.927866861940387366e+00
1.800000000000000130e-06 5.382279750064353587e+26 2.928343072918576873e+00
1.810000000000000035e-06 5.355756804881512806e+26 2.928215153718214836e+00
1.819999999999999939e-06 5.329029632185770719e+26 2.928673927753529860e+00
1.830000000000000055e-06 5.304176907234811244e+26 2.928568159002833404e+00
1.839999999999999959e-06 5.278777424827155608e+26 2.928528839346414170e+00
1.850000000000000075e-06 5.252441973941761075e+26 2.928995540619480309e+00
1.859999999999999979e-06 5.228351618740035294e+26 2.928888605133884049e+00
1.870000000000000095e-06 5.202507558926634554e+26 2.929357371588674486e+00
1.880000000000000000e-06 5.178072269077631878e+26 2.929322597825914531e+00
1.890000000000000116e-06 5.155237498785206077e+26 2.929022746391371612e+00
1.900000000000000020e-06 5.130594271249807216e+26 2.929490128542217686e+00
1.909999999999999924e-06 5.106837452099843792e+26 2.929458667761074775e+00
1.920000000000000252e-06 5.083764740667901156e+26 2.929332788089534567e+00
1.930000000000000156e-06 5.060091718476262018e+26 2.929833439334363909e+00
1.940000000000000060e-06 5.036369366747084709e+26 2.929809685415394327e+00
1.949999999999999965e-06 5.013331534895486973e+26 2.929662750514320457e+00
1.959999999999999869e-06 4.990908009892660184e+26 2.930190553779030260e+00
1.970000000000000197e-06 4.968434839027920889e+26 2.930165343179353954e+00
1.980000000000000101e-06 4.946017281164307551e+26 2.930021552610090563e+00
1.990000000000000005e-06 4.923914058352043558e+26 2.930521967470849809e+00
1.999999999999999909e-06 4.902332197904486073e+26 2.930530066101052711e+00
2.010000000000000237e-06 4.879894155688446814e+26 2.930513331743631600e+00
2.020000000000000142e-06 4.858270617040973917e+26 2.930373577399316698e+00
2.030000000000000046e-06 4.837698244398399931e+26 2.930903578387359598e+00
2.039999999999999950e-06 4.816131064673862572e+26 2.930889937933315093e+00
2.049999999999999854e-06 4.795087186686186322e+26 2.930872751564467027e+00
2.060000000000000182e-06 4.774065426658283683e+26 2.930736918815656900e+00
2.070000000000000086e-06 4.752446187497639024e+26 2.931225140942286256e+00
2.079999999999999991e-06 4.733383381776636869e+26 2.931260778654835697e+00
2.089999999999999895e-06 4.713184268483184283e+26 2.931247357472341886e+00
2.100000000000000223e-06 4.692564793457485920e+26 2.931119899055983247e+00
2.110000000000000127e-06 4.672114725098174979e+26 2.931607109217159390e+00
2.120000000000000031e-06 4.652256315079319219e+26 2.931631152883760194e+00
2.129999999999999935e-06 4.633752484459165208e+26 2.931641149101829491e+00
2.139999999999999840e-06 4.614401146584430790e+26 2.931632268108394168e+00
2.150000000000000167e-06 4.594351189033669649e+26 2.931509221226980433e+00
2.160000000000000072e-06 4.574741425816585842e+26 2.932000684555551295e+00
2.169999999999999976e-06 4.556019895915518995e+26 2.932024599381379826e+00
2.179999999999999880e-06 4.537312372002026396e+26 2.932019240300789420e+00
2.190000000000000208e-06 4.519307492315595963e+26 2.932039007057386737e+00
2.200000000000000112e-06 4.500771075821789002e+26 2.931915956657924927e+00
2.210000000000000016e-06 4.481948734200747298e+26 2.932411480593372755e+00
2.219999999999999921e-06 4.463420282993993002e+26 2.932414023600577124e+00
2.230000000000000248e-06 4.445732891929368437e+26 2.932443041959847285e+00
2.240000000000000153e-06 4.427930323034301129e+26 2.932442795063350705e+00
2.250000000000000057e-06 4.409337765134097198e+26 2.932647207708947601e+00
2.259999999999999961e-06 4.392782736280024027e+26 2.932668356092476891e+00
2.269999999999999866e-06 4.375138066000045606e+26 2.932551145236422130e+00
2.280000000000000193e-06 4.357345328312403222e+26 2.933052297887617677e+00
2.290000000000000098e-06 4.339441201813294274e+26 2.933060509556591811e+00
2.300000000000000002e-06 4.322735015474130609e+26 2.933095238314138875e+00
2.309999999999999906e-06 4.305907548217176849e+26 2.933100682361965639e+00
2.320000000000000234e-06 4.289211446430756725e+26 2.933106899249390498e+00
2.330000000000000138e-06 4.272231326480889407e+26 2.933118403642311467e+00
2.340000000000000042e-06 4.255794576625134946e+26 2.933126133803097613e+00
2.349999999999999947e-06 4.240281649317717219e+26 2.933035141435498261e+00
2.359999999999999851e-06 4.223145728875803987e+26 2.933546659751380847e+00
2.370000000000000179e-06 4.207087458432114388e+26 2.933556616171742792e+00
2.380000000000000083e-06 4.190672396157305615e+26 2.933766160803939815e+00
2.389999999999999987e-06 4.175106544437822272e+26 2.933807617655480371e+00
2.399999999999999891e-06 4.159416675894488689e+26 2.933819798344608820e+00
2.410000000000000219e-06 4.143329387815629881e+26 2.933837220097964327e+00
2.420000000000000123e-06 4.127621942910801187e+26 2.933850664178572654e+00
2.430000000000000028e-06 4.112289098028682477e+26 2.933864955926465790e+00
2.439999999999999932e-06 4.097071248981048009e+26 2.933879940396717068e+00
2.450000000000000260e-06 4.081571269788980948e+26 2.933900142520610821e+00
2.460000000000000164e-06 4.066580704096526608e+26 2.933916508548713331e+00
2.470000000000000068e-06 4.051107935176383625e+26 2.934132031894055803e+00
2.479999999999999972e-06 4.036339931645527547e+26 2.934149794245104470e+00
2.489999999999999877e-06 4.021045553797602302e+26 2.934546403440741802e+00
2.500000000000000205e-06 4.006107209232201990e+26 2.934570050170552946e+00
2.510000000000000109e-06 3.991665125021959098e+26 2.934589859906026721e+00
2.520000000000000013e-06 3.977328216269276356e+26 2.934610360743068913e+00
2.529999999999999917e-06 3.962983668282754944e+26 2.934631557637256805e+00
2.540000000000000245e-06 3.948155062106373493e+26 2.934851579926860854e+00
2.550000000000000149e-06 3.933978813707230508e+26 2.934908595815097776e+00
2.560000000000000054e-06 3.920055798694814967e+26 2.934931883315368140e+00
2.569999999999999958e-06 3.906233026946643876e+26 2.934955854709036416e+00
2.579999999999999862e-06 3.892509783774302217e+26 2.934980509026638096e+00
2.590000000000000190e-06 3.878885233108129122e+26 2.935005842917592478e+00
2.600000000000000094e-06 3.864982906742479000e+26 2.935036366302945954e+00
2.609999999999999998e-06 3.851114706794845109e+26 2.935261121270954732e+00
2.619999999999999903e-06 3.837782133311271149e+26 2.935288446935886419e+00
2.630000000000000230e-06 3.824543777987033172e+26 2.935316404940094159e+00
2.640000000000000135e-06 3.811398602110428095e+26 2.935344984683638803e+00
2.650000000000000039e-06 3.798237040704851877e+26 2.935374172571176832e+00
