# z (um)	 Electron density (m^-3)
0.000000000000000000e+00 3.263279064430050443e+27 3.132984285306223082e+00
1.000000000000000021e-08 3.079238592881298756e+27 3.130422925299096271e+00
2.000000000000000042e-08 2.919605071250830517e+27 3.127294518500741471e+00
3.000000000000000394e-08 2.778539459101788535e+27 3.124213953213221817e+00
4.000000000000000084e-08 2.653563381196440233e+27 3.120872064791766931e+00
4.999999999999999774e-08 2.542018790070169849e+27 3.117640614430982726e+00
6.000000000000000787e-08 2.441242438895250401e+27 3.114352289851839206e+00
7.000000000000000477e-08 2.349723130605028276e+27 3.111085690768573109e+00
8.000000000000000167e-08 2.266729739661095977e+27 3.108094378881793407e+00
8.999999999999999857e-08 2.190221516637772244e+27 3.104852497626828800e+00
9.999999999999999547e-08 2.120227226889747437e+27 3.101892446192888286e+00
1.100000000000000056e-07 2.056033980852054495e+27 3.098828578538470602e+00
1.200000000000000157e-07 1.995759706633305021e+27 3.096206546338954535e+00
1.299999999999999994e-07 1.940210073573467523e+27 3.093243976104395720e+00
1.400000000000000095e-07 1.887910255471126822e+27 3.091088442021427962e+00
1.499999999999999932e-07 1.839225170968862720e+27 3.088412117380856081e+00
1.600000000000000033e-07 1.793579233866189907e+27 3.086157325626690984e+00
1.700000000000000135e-07 1.750477272519173189e+27 3.084048740424602197e+00
1.799999999999999971e-07 1.710340359244944507e+27 3.081711130928550979e+00
1.900000000000000073e-07 1.671736855507865821e+27 3.079655393680786890e+00
1.999999999999999909e-07 1.635484375551783389e+27 3.077694885065223485e+00
2.100000000000000011e-07 1.601199768529081825e+27 3.075992223089923705e+00
2.200000000000000112e-07 1.568431594368578329e+27 3.074030697508451482e+00
2.299999999999999949e-07 1.537536942260613600e+27 3.072330741388799247e+00
2.400000000000000315e-07 1.507582589043247044e+27 3.070892748598288424e+00
2.499999999999999887e-07 1.478932409105855669e+27 3.069352059755567907e+00
2.599999999999999988e-07 1.452008742969152759e+27 3.067878147088626495e+00
2.700000000000000090e-07 1.426269518959802344e+27 3.066283201204007103e+00
2.800000000000000191e-07 1.401029463509027378e+27 3.064940903552481721e+00
2.900000000000000292e-07 1.377364670639207718e+27 3.063831839877885876e+00
2.999999999999999864e-07 1.354483606688321016e+27 3.062601880600803295e+00
3.099999999999999966e-07 1.332412040992282658e+27 3.061236642305531497e+00
3.200000000000000067e-07 1.311136645802494580e+27 3.060295597733718509e+00
3.300000000000000168e-07 1.290626402707582855e+27 3.059211378524917091e+00
3.400000000000000270e-07 1.270925175214898029e+27 3.058170584527026392e+00
3.499999999999999842e-07 1.251879934290457618e+27 3.057174750761464388e+00
3.599999999999999943e-07 1.233626362361073943e+27 3.056222460930574147e+00
3.700000000000000044e-07 1.215997655856290497e+27 3.055106287725749326e+00
3.800000000000000146e-07 1.198767131060248650e+27 3.054415036987198739e+00
3.900000000000000247e-07 1.182249282305350832e+27 3.053376833332015483e+00
3.999999999999999819e-07 1.166130716577342258e+27 3.052749451249837431e+00
4.099999999999999920e-07 1.150656975880807228e+27 3.051777162190397963e+00
4.200000000000000022e-07 1.135310978497724734e+27 3.051018033578921873e+00
4.300000000000000123e-07 1.120848829054649203e+27 3.050104042135103999e+00
4.400000000000000224e-07 1.106753399823978930e+27 3.049403173944547962e+00
4.500000000000000326e-07 1.092613975160876232e+27 3.048728761212185390e+00
4.599999999999999898e-07 1.079279811821357475e+27 3.048081373612985701e+00
4.699999999999999999e-07 1.066362446253792938e+27 3.047246101685999964e+00
4.800000000000000630e-07 1.053498625123274675e+27 3.046663117669372589e+00
4.899999999999999672e-07 1.041209872840119618e+27 3.045875993092082012e+00
4.999999999999999774e-07 1.028963727866410905e+27 3.045323468049474513e+00
5.099999999999999875e-07 1.017365034142750148e+27 3.044598745528236616e+00
5.199999999999999976e-07 1.006114240154197329e+27 3.043874531049697296e+00
5.300000000000000078e-07 9.946523359797851616e+26 3.043591777437087309e+00
5.400000000000000179e-07 9.837063927065700972e+26 3.042908138070729684e+00
5.500000000000000281e-07 9.730451648700215080e+26 3.042452110735309745e+00
5.600000000000000382e-07 9.626259176009845941e+26 3.041806465938356574e+00
5.700000000000000483e-07 9.525662450490225844e+26 3.041389201226683880e+00
5.800000000000000585e-07 9.425932071832307116e+26 3.040803959118220767e+00
5.899999999999999627e-07 9.327375161012166362e+26 3.040396477604168535e+00
5.999999999999999728e-07 9.234516673251553447e+26 3.040033960694470405e+00
6.099999999999999830e-07 9.141026549045284055e+26 3.039278778623144994e+00
6.199999999999999931e-07 9.050303506242159907e+26 3.038946661952978801e+00
6.300000000000000033e-07 8.963052350531045030e+26 3.038634004902790231e+00
6.400000000000000134e-07 8.876140568774037102e+26 3.037924408428688050e+00
6.500000000000000235e-07 8.790708219664270903e+26 3.037637878383672163e+00
6.600000000000000337e-07 8.708004574392230152e+26 3.037139946603581553e+00
6.700000000000000438e-07 8.628304606699650221e+26 3.036884481013883086e+00
6.800000000000000539e-07 8.549097721604684162e+26 3.036226380769170063e+00
6.900000000000000641e-07 8.469967642647814706e+26 3.036176369386443863e+00
6.999999999999999683e-07 8.394087091375626998e+26 3.035725621469409941e+00
7.099999999999999785e-07 8.319450577846840280e+26 3.035132215654173571e+00
7.199999999999999886e-07 8.244997753032746548e+26 3.035114837065597815e+00
7.299999999999999987e-07 8.173563183289189621e+26 3.034693798678641308e+00
7.400000000000000089e-07 8.102307212737151740e+26 3.034283152515754978e+00
7.500000000000000190e-07 8.033902781651203572e+26 3.033728683142441263e+00
7.600000000000000291e-07 7.965726372362305991e+26 3.033333486333816609e+00
7.700000000000000393e-07 7.899086333256427207e+26 3.032946584094265319e+00
7.800000000000000494e-07 7.832896467427530549e+26 3.032603963174986816e+00
7.900000000000000595e-07 7.767735801150639584e+26 3.032235205724379767e+00
7.999999999999999638e-07 7.705176538277920902e+26 3.031910241699923958e+00
8.099999999999999739e-07 7.641945527370695763e+26 3.031742032406648413e+00
8.199999999999999841e-07 7.580741978674126393e+26 3.031435113308117657e+00
8.299999999999999942e-07 7.520323193756661420e+26 3.031098377425312851e+00
8.400000000000000043e-07 7.460801602976111802e+26 3.030811183548082877e+00
8.500000000000000145e-07 7.402305129953928494e+26 3.030677626532768176e+00
8.600000000000000246e-07 7.344208812846883341e+26 3.030407366010613668e+00
8.700000000000000347e-07 7.288604024250322031e+26 3.029685335400358337e+00
8.800000000000000449e-07 7.231229232528664817e+26 3.029614183018022544e+00
8.900000000000000550e-07 7.175388830590662622e+26 3.029557565963042709e+00
9.000000000000000652e-07 7.121846798792273561e+26 3.029282147201693753e+00
9.099999999999999694e-07 7.069831689452824201e+26 3.028823095774413776e+00
9.199999999999999795e-07 7.018464663094376264e+26 3.028607303466376077e+00
9.299999999999999897e-07 6.966312671970137704e+26 3.028542611919777361e+00
9.399999999999999998e-07 6.915358527333300394e+26 3.028100505536068798e+00
9.500000000000000100e-07 6.865974119003517122e+26 3.028094579339904779e+00
9.600000000000001260e-07 6.817524179635835282e+26 3.027672508785751671e+00
9.700000000000000302e-07 6.769676826430970453e+26 3.027451842127652171e+00
9.799999999999999345e-07 6.722448809739663054e+26 3.027034269598466221e+00
9.900000000000000505e-07 6.675791975317461879e+26 3.027056342780164222e+00
9.999999999999999547e-07 6.630371867186933842e+26 3.026657510350770686e+00
1.010000000000000071e-06 6.585252024255763373e+26 3.026688630305585104e+00
1.019999999999999975e-06 6.540393359345412542e+26 3.026292879269754543e+00
1.030000000000000091e-06 6.496910834698823228e+26 3.025907366268296261e+00
1.039999999999999995e-06 6.453499876843168064e+26 3.025953725145523521e+00
1.050000000000000111e-06 6.410283459599242240e+26 3.025567692093448002e+00
1.060000000000000016e-06 6.368411614558419876e+26 3.025146964220714718e+00
1.069999999999999920e-06 6.325804396270965359e+26 3.025389316753662960e+00
1.080000000000000036e-06 6.284312954894579492e+26 3.025015388682675166e+00
1.089999999999999940e-06 6.244655947662528308e+26 3.024651887408963180e+00
1.100000000000000056e-06 6.202710071605319869e+26 3.024711668606771209e+00
1.109999999999999960e-06 6.163637291469795973e+26 3.024358237872776023e+00
1.120000000000000076e-06 6.125438912094724970e+26 3.024007348353302760e+00
1.129999999999999981e-06 6.084754259348927325e+26 3.023890333646160222e+00
1.140000000000000097e-06 6.046858173233236014e+26 3.023978427469232511e+00
1.150000000000000001e-06 6.008361070518470442e+26 3.023635218425692273e+00
1.160000000000000117e-06 5.971014007293457876e+26 3.023490969502283576e+00
1.170000000000000021e-06 5.934963976243822972e+26 3.023167864980004005e+00
1.179999999999999925e-06 5.898051327325111958e+26 3.022840936406528289e+00
1.190000000000000041e-06 5.862291641368424258e+26 3.022713641978005850e+00
1.199999999999999946e-06 5.826454538212767867e+26 3.022398129158434532e+00
1.210000000000000062e-06 5.791096095451494609e+26 3.022713397373310240e+00
1.219999999999999966e-06 5.756582341509145944e+26 3.022462489461321677e+00
1.230000000000000082e-06 5.722923955217243450e+26 3.022357967505521881e+00
1.239999999999999986e-06 5.689165053258567507e+26 3.022064111863659530e+00
1.250000000000000102e-06 5.655756232227493403e+26 3.021969253654761989e+00
1.260000000000000007e-06 5.622400917821959021e+26 3.021870293598773127e+00
1.270000000000000123e-06 5.591053939369819957e+26 3.021653962693858109e+00
1.280000000000000027e-06 5.558908610594273064e+26 3.021560667621783214e+00
1.289999999999999931e-06 5.527379169272459355e+26 3.021296358748420730e+00
1.300000000000000047e-06 5.496271477155863410e+26 3.020777607481444083e+00
1.309999999999999951e-06 5.464944250074078656e+26 3.020747730487109095e+00
1.320000000000000067e-06 5.434678101838903766e+26 3.020490642004804993e+00
1.329999999999999972e-06 5.403732705731502279e+26 3.020409255439068019e+00
1.340000000000000088e-06 5.374279093027621643e+26 3.020398076696023892e+00
1.349999999999999992e-06 5.343559540584144443e+26 3.020321596177881762e+00
1.360000000000000108e-06 5.314748957889096545e+26 3.020069718039253281e+00
1.370000000000000012e-06 5.284805568462385186e+26 3.020053570777980756e+00
1.380000000000000128e-06 5.254822312739859437e+26 3.019547144791100646e+00
1.390000000000000032e-06 5.226290522257839384e+26 3.019486669366974851e+00
1.399999999999999937e-06 5.197216528727892046e+26 3.019291025945860074e+00
1.410000000000000053e-06 5.168424879376669084e+26 3.019237101049375038e+00
1.419999999999999957e-06 5.139543744336266078e+26 3.019173190009043051e+00
1.430000000000000073e-06 5.110882168641315538e+26 3.019172422207754281e+00
1.439999999999999977e-06 5.083624190445593440e+26 3.018691952554098723e+00
1.450000000000000093e-06 5.056442692852056990e+26 3.018511434085163092e+00
1.459999999999999997e-06 5.027658638110154221e+26 3.018463147862443297e+00
1.470000000000000113e-06 5.000413872099147521e+26 3.018430610168961969e+00
1.480000000000000018e-06 4.973921588855071351e+26 3.018011976023474929e+00
1.490000000000000134e-06 4.945330294786122612e+26 3.017976320171770421e+00
1.500000000000000038e-06 4.918713374720776728e+26 3.018016873135147993e+00
1.509999999999999942e-06 4.890854761656832481e+26 3.017989583907927376e+00
1.520000000000000058e-06 4.863527296862968382e+26 3.017587528701648480e+00
1.529999999999999963e-06 4.835679365622339529e+26 3.017579384161448441e+00
1.540000000000000079e-06 4.804529161384930506e+26 3.017623001886495793e+00
1.549999999999999983e-06 4.771340021519064012e+26 3.017169997597030751e+00
1.560000000000000099e-06 4.749605944621172753e+26 3.017219325714740386e+00
1.570000000000000003e-06 4.729230175714925720e+26 3.016784912112934869e+00
1.580000000000000119e-06 4.707614238800682025e+26 3.016840759894828139e+00
1.590000000000000023e-06 4.686207106967042212e+26 3.016899067918966448e+00
1.599999999999999928e-06 4.664890427599690421e+26 3.016644196637221498e+00
1.610000000000000044e-06 4.645269643141285240e+26 3.016717681470466594e+00
1.619999999999999948e-06 4.624600443175451886e+26 3.016280785872504921e+00
1.630000000000000064e-06 4.603990953676513377e+26 3.016348056548815659e+00
1.639999999999999968e-06 4.583376869132086997e+26 3.016354367638875544e+00
1.650000000000000084e-06 4.565036820374497992e+26 3.015997092486374154e+00
1.659999999999999988e-06 4.544994581314832858e+26 3.016070871251472774e+00
1.670000000000000104e-06 4.525030389495967068e+26 3.015828917356549788e+00
1.680000000000000009e-06 4.505360690929651029e+26 3.015906926830715928e+00
1.690000000000000125e-06 4.486199704449492518e+26 3.015482879290214857e+00
1.700000000000000029e-06 4.467932346362369212e+26 3.015577748407393788e+00
1.709999999999999933e-06 4.449593873638349678e+26 3.015219967237213972e+00
1.720000000000000049e-06 4.430009409728421148e+26 3.015427629704245938e+00
1.729999999999999953e-06 4.411733676219746978e+26 3.015075282732842865e+00
1.740000000000000069e-06 4.392923184284184053e+26 3.015166081759176553e+00
1.749999999999999974e-06 4.375613958672370306e+26 3.014765612367471093e+00
1.760000000000000090e-06 4.357323328249830983e+26 3.014860298340204636e+00
1.769999999999999994e-06 4.339553660576502288e+26 3.014699812002023194e+00
1.780000000000000110e-06 4.321401033675464744e+26 3.014733023112260657e+00
1.790000000000000014e-06 4.304093013244623727e+26 3.014392044937546533e+00
1.800000000000000130e-06 4.286520720989828331e+26 3.014238306659670297e+00
1.810000000000000035e-06 4.269832916618438129e+26 3.014290259598470634e+00
1.819999999999999939e-06 4.252975342205064439e+26 3.013954424024266388e+00
1.830000000000000055e-06 4.235770907439691126e+26 3.014062798475747318e+00
1.839999999999999959e-06 4.218882611857971943e+26 3.013848007869612378e+00
1.850000000000000075e-06 4.201971026509986163e+26 3.013959753892418103e+00
1.859999999999999979e-06 4.185689977379215535e+26 3.013630747948702115e+00
1.870000000000000095e-06 4.168959024429754591e+26 3.013488837596224101e+00
1.880000000000000000e-06 4.153261417264084858e+26 3.013552353800282635e+00
1.890000000000000116e-06 4.137388803144879167e+26 3.013227890851808866e+00
1.900000000000000020e-06 4.120768069283989014e+26 3.013533810362388987e+00
1.909999999999999924e-06 4.105162497101257421e+26 3.013212725360013611e+00
1.920000000000000252e-06 4.089115767577121326e+26 3.013010537009249479e+00
1.930000000000000156e-06 4.073552283290223273e+26 3.013134139254046051e+00
1.940000000000000060e-06 4.058333163677979278e+26 3.012817357693326592e+00
1.949999999999999965e-06 4.042845920754804075e+26 3.012687524100229997e+00
1.959999999999999869e-06 4.027236676215676684e+26 3.012749346768285541e+00
1.970000000000000197e-06 4.012937912724818855e+26 3.012636333353872153e+00
1.980000000000000101e-06 3.998213244725744237e+26 3.012325466611965652e+00
1.990000000000000005e-06 3.982968935754242194e+26 3.012460653821139811e+00
1.999999999999999909e-06 3.967932292588866425e+26 3.012269642058400976e+00
2.010000000000000237e-06 3.953568413966023571e+26 3.011963185111200758e+00
2.020000000000000142e-06 3.938476480208434100e+26 3.012288576607904833e+00
2.030000000000000046e-06 3.924344754179480370e+26 3.011985382660958166e+00
2.039999999999999950e-06 3.909945126481232245e+26 3.011869024231571768e+00
2.049999999999999854e-06 3.896121099449721240e+26 3.011497353013448119e+00
2.060000000000000182e-06 3.881492030076839700e+26 3.011829041827208453e+00
2.070000000000000086e-06 3.867805746554487039e+26 3.011531458350772184e+00
2.079999999999999991e-06 3.853851125661975149e+26 3.011420563934877226e+00
2.089999999999999895e-06 3.839928880625896342e+26 3.011571382445438427e+00
2.100000000000000223e-06 3.826188824165782566e+26 3.011463430366032146e+00
2.110000000000000127e-06 3.813485857825931518e+26 3.011115323222854023e+00
2.120000000000000031e-06 3.799952430814815532e+26 3.011009569262252938e+00
2.129999999999999935e-06 3.786447456180428136e+26 3.011165989078512517e+00
2.139999999999999840e-06 3.773119133970142204e+26 3.011063037838743295e+00
2.150000000000000167e-06 3.760257508653208239e+26 3.010775890332512361e+00
2.160000000000000072e-06 3.747127670575255597e+26 3.010675272560537685e+00
2.169999999999999976e-06 3.733865966239956337e+26 3.010765989959300448e+00
2.179999999999999880e-06 3.720931313851742542e+26 3.010667748313012204e+00
2.190000000000000208e-06 3.708453202372371410e+26 3.010385240087004366e+00
2.200000000000000112e-06 3.695706762524736534e+26 3.010289268971739762e+00
2.210000000000000016e-06 3.683412631633780393e+26 3.010009051594334739e+00
2.219999999999999921e-06 3.670420146412320740e+26 3.010362651792504174e+00
2.230000000000000248e-06 3.657788039866930968e+26 3.010270414264671679e+00
2.240000000000000153e-06 3.645765109355650411e+26 3.009993954197976773e+00
2.250000000000000057e-06 3.633475469205014322e+26 3.009903983423864116e+00
2.259999999999999961e-06 3.621477426556068477e+26 3.009557576090430508e+00
2.269999999999999866e-06 3.608770932730324717e+26 3.009917461664280314e+00
2.280000000000000193e-06 3.597097708351779866e+26 3.009645608604632372e+00
2.290000000000000098e-06 3.585159162445041003e+26 3.009560346948087606e+00
2.300000000000000002e-06 3.573306703818902015e+26 3.009476167081595044e+00
2.309999999999999906e-06 3.561887099414208138e+26 3.009207795099681615e+00
2.320000000000000234e-06 3.550203695257166417e+26 3.009125922390218477e+00
2.330000000000000138e-06 3.538188769988413862e+26 3.009493535708486878e+00
2.340000000000000042e-06 3.527018054507664498e+26 3.009228780197736874e+00
2.349999999999999947e-06 3.515584615478478888e+26 3.009150468774192344e+00
2.359999999999999851e-06 3.504417438647719707e+26 3.008887859480928739e+00
2.370000000000000179e-06 3.493144849554655714e+26 3.008811711154275148e+00
2.380000000000000083e-06 3.481807487463086164e+26 3.008663058551085623e+00
2.389999999999999987e-06 3.470221951314053024e+26 3.008388161996555787e+00
2.399999999999999891e-06 3.458776918431118793e+26 3.008763955345080454e+00
2.410000000000000219e-06 3.447814600880184085e+26 3.008691847156572230e+00
2.420000000000000123e-06 3.437261650276147716e+26 3.008435331389862188e+00
2.430000000000000028e-06 3.426445021533390454e+26 3.008365175731840147e+00
2.439999999999999932e-06 3.415700875592876561e+26 3.008295947408606619e+00
2.450000000000000260e-06 3.405028592974517781e+26 3.008227652976286137e+00
2.460000000000000164e-06 3.394758951893619878e+26 3.007975097533770903e+00
2.470000000000000068e-06 3.384227556612497194e+26 3.007908798883657475e+00
2.479999999999999972e-06 3.373614143727728535e+26 3.007843475411467349e+00
2.489999999999999877e-06 3.363551422711157996e+26 3.007593866460744891e+00
2.500000000000000205e-06 3.352833325682750949e+26 3.007980580312000551e+00
2.510000000000000109e-06 3.342368715337369611e+26 3.007919875531118503e+00
2.520000000000000013e-06 3.332510021218411312e+26 3.007673224723192540e+00
2.529999999999999917e-06 3.322392181329461248e+26 3.007612882556558898e+00
2.540000000000000245e-06 3.312341641751339062e+26 3.007553440488591079e+00
2.550000000000000149e-06 3.302357919174653539e+26 3.007494897389090038e+00
2.560000000000000054e-06 3.291994631351218714e+26 3.007236253647882940e+00
2.569999999999999958e-06 3.282142989582818364e+26 3.007179548074232045e+00
2.579999999999999862e-06 3.272355480887927866e+26 3.007123707529749002e+00
2.590000000000000190e-06 3.262631602052300500e+26 3.007068735577370422e+00
2.600000000000000094e-06 3.253141092242257482e+26 3.006829429985079738e+00
2.609999999999999998e-06 3.243541826458313177e+26 3.006776286088664207e+00
2.619999999999999903e-06 3.234004331579889799e+26 3.006724018442229696e+00
2.630000000000000230e-06 3.224528138370218660e+26 3.006672631176261046e+00
2.640000000000000135e-06 3.215112467761469025e+26 3.006622127393906219e+00
2.650000000000000039e-06 3.205867419234693177e+26 3.006388872558261482e+00
