# z (um)	 Electron density (m^-3)
0.000000000000000000e+00 2.783075728344051321e+27 4.514071816053379926e+00
1.000000000000000021e-08 2.697862978255259260e+27 4.511631917464075769e+00
2.000000000000000042e-08 2.623197056473001838e+27 4.509045199513747271e+00
3.000000000000000394e-08 2.574259241088842079e+27 4.506270875993406477e+00
4.000000000000000084e-08 2.498150539882918906e+27 4.503369409558254155e+00
4.999999999999999774e-08 2.413719044528475919e+27 4.501064578542909977e+00
6.000000000000000787e-08 2.334549592436664947e+27 4.498606393754722710e+00
7.000000000000000477e-08 2.260325910815315214e+27 4.496649126672458863e+00
8.000000000000000167e-08 2.190490964439224565e+27 4.494473840308620183e+00
8.999999999999999857e-08 2.124124389582787991e+27 4.491950079943848095e+00
9.999999999999999547e-08 2.061608270379906812e+27 4.489885528080111321e+00
1.100000000000000056e-07 2.002633492666931463e+27 4.488254835444241309e+00
1.200000000000000157e-07 1.946297221912097669e+27 4.486310819175015396e+00
1.299999999999999994e-07 1.893010431013559345e+27 4.484679505818599310e+00
1.400000000000000095e-07 1.842540207131853476e+27 4.483423362200232631e+00
1.499999999999999932e-07 1.794675509343452591e+27 4.482495413952733543e+00
1.600000000000000033e-07 1.749227007313520952e+27 4.481825101063908967e+00
1.700000000000000135e-07 1.705900957924830701e+27 4.480707878430716384e+00
1.799999999999999971e-07 1.664138734942340450e+27 4.479244178516148978e+00
1.900000000000000073e-07 1.624386439163101679e+27 4.477865330071773897e+00
1.999999999999999909e-07 1.586327798160018032e+27 4.476110844481392625e+00
2.100000000000000011e-07 1.549983748102401855e+27 4.474693107273711057e+00
2.200000000000000112e-07 1.515409840587253396e+27 4.473981234462709011e+00
2.299999999999999949e-07 1.481846327439667105e+27 4.472984514066384421e+00
2.400000000000000315e-07 1.450171350623502548e+27 4.472865317841310251e+00
2.499999999999999887e-07 1.419386955067924845e+27 4.472129386359555703e+00
2.599999999999999988e-07 1.389842709524135890e+27 4.471733193894541714e+00
2.700000000000000090e-07 1.361490641309300974e+27 4.471406679113741234e+00
2.800000000000000191e-07 1.334139552095217613e+27 4.470551056734922035e+00
2.900000000000000292e-07 1.307850903958275624e+27 4.469739494695529558e+00
2.999999999999999864e-07 1.282539881513688675e+27 4.469232633859803627e+00
3.099999999999999966e-07 1.257881790295958683e+27 4.468847180238629591e+00
3.200000000000000067e-07 1.234303899355718085e+27 4.467897515310249368e+00
3.300000000000000168e-07 1.211390379064200748e+27 4.467830710134754746e+00
3.400000000000000270e-07 1.189504192765690721e+27 4.466880796913163643e+00
3.499999999999999842e-07 1.168165663179620216e+27 4.467099029595577697e+00
3.599999999999999943e-07 1.147744038408571055e+27 4.466565763822111457e+00
3.700000000000000044e-07 1.127667140644800990e+27 4.465421639545203547e+00
3.800000000000000146e-07 1.108356671794567394e+27 4.465119897547212169e+00
3.900000000000000247e-07 1.089677374268896606e+27 4.465087013747178091e+00
3.999999999999999819e-07 1.071538300172067786e+27 4.464292228048255318e+00
4.099999999999999920e-07 1.053991441686996978e+27 4.463604020081609391e+00
4.200000000000000022e-07 1.037094419860865894e+27 4.463754947344236612e+00
4.300000000000000123e-07 1.020664963774457140e+27 4.463131343455924771e+00
4.400000000000000224e-07 1.004507427776894320e+27 4.462905073848216553e+00
4.500000000000000326e-07 9.890950970619174553e+26 4.462564579601731474e+00
4.599999999999999898e-07 9.739350494820652049e+26 4.462342205799707529e+00
4.699999999999999999e-07 9.593739854732169087e+26 4.461500990866013261e+00
4.800000000000000630e-07 9.451177542777696179e+26 4.461392390281370801e+00
4.899999999999999672e-07 9.315043691004236751e+26 4.461186505511894218e+00
4.999999999999999774e-07 9.179768166115222882e+26 4.460709680185386716e+00
5.099999999999999875e-07 9.051364842360933691e+26 4.460617903225798209e+00
5.199999999999999976e-07 8.923664570779802891e+26 4.459994209223348882e+00
5.300000000000000078e-07 8.800086919298622526e+26 4.459898981658610317e+00
5.400000000000000179e-07 8.678990630281204426e+26 4.459323045844280742e+00
5.500000000000000281e-07 8.561516307592736361e+26 4.458934355476608324e+00
5.600000000000000382e-07 8.447200960199416375e+26 4.458431201388750154e+00
5.700000000000000483e-07 8.336409971718797106e+26 4.458896808249404486e+00
5.800000000000000585e-07 8.228009756193341931e+26 4.458513041185398151e+00
5.899999999999999627e-07 8.121544011886586899e+26 4.457466255213242690e+00
5.999999999999999728e-07 8.018389120993051422e+26 4.457197426710888699e+00
6.099999999999999830e-07 7.917813371818163251e+26 4.456929140381927112e+00
6.199999999999999931e-07 7.819655346132954074e+26 4.456775442953074595e+00
6.300000000000000033e-07 7.723236559202970964e+26 4.455948635012538794e+00
6.400000000000000134e-07 7.627959837357795605e+26 4.456019033512900407e+00
6.500000000000000235e-07 7.536179089261209039e+26 4.455097709334959077e+00
6.600000000000000337e-07 7.447092106418231590e+26 4.455090607768618760e+00
6.700000000000000438e-07 7.357675543299619298e+26 4.454651788001476653e+00
6.800000000000000539e-07 7.272768052036988674e+26 4.454534235962078981e+00
6.900000000000000641e-07 7.187350096079761717e+26 4.454196087078106991e+00
6.999999999999999683e-07 7.105681317991016816e+26 4.453443292027083444e+00
7.099999999999999785e-07 7.025734531315899210e+26 4.452942472409911367e+00
7.199999999999999886e-07 6.945941865386844506e+26 4.452525612612465267e+00
7.299999999999999987e-07 6.867923945088535097e+26 4.452090357478632576e+00
7.400000000000000089e-07 6.793217894971494521e+26 4.451498536664491468e+00
7.500000000000000190e-07 6.718404064446438468e+26 4.451365188482350632e+00
7.600000000000000291e-07 6.646855574407724211e+26 4.450856484430472548e+00
7.700000000000000393e-07 6.575199790137595219e+26 4.450640844535430851e+00
7.800000000000000494e-07 6.505063037452201537e+26 4.450406033589915822e+00
7.900000000000000595e-07 6.437913451736309127e+26 4.450008595668029976e+00
7.999999999999999638e-07 6.370609989920663536e+26 4.449843250073581835e+00
8.099999999999999739e-07 6.304067150837955773e+26 4.449213655409694823e+00
8.199999999999999841e-07 6.239450027616887550e+26 4.449120893654523456e+00
8.299999999999999942e-07 6.176232639582648474e+26 4.449062707807883044e+00
8.400000000000000043e-07 6.115693630501829415e+26 4.448608287963933705e+00
8.500000000000000145e-07 6.054309291495033969e+26 4.447885664502101655e+00
8.600000000000000246e-07 5.994601417046427673e+26 4.447926033325812156e+00
8.700000000000000347e-07 5.935589119116689401e+26 4.447203994442118002e+00
8.800000000000000449e-07 5.878141305181694345e+26 4.447316044750611042e+00
8.900000000000000550e-07 5.821309378192785205e+26 4.446717959071413873e+00
9.000000000000000652e-07 5.766091098287546254e+26 4.446644946251149477e+00
9.099999999999999694e-07 5.711348977465474781e+26 4.446109536833164455e+00
9.199999999999999795e-07 5.657646602968879123e+26 4.445544146901132088e+00
9.299999999999999897e-07 5.605349210018369241e+26 4.445800091084009864e+00
9.399999999999999998e-07 5.553628604379354162e+26 4.445107969844372953e+00
9.500000000000000100e-07 5.502759842874906735e+26 4.444685733862818289e+00
9.600000000000001260e-07 5.453263348157216910e+26 4.444973497695366760e+00
9.700000000000000302e-07 5.402972110745699701e+26 4.444557172108471121e+00
9.799999999999999345e-07 5.354759439199117414e+26 4.444224786758498524e+00
9.900000000000000505e-07 5.307417168595180083e+26 4.443855386398871232e+00
9.999999999999999547e-07 5.260941810012166186e+26 4.443320841441508406e+00
1.010000000000000071e-06 5.215213465015803040e+26 4.443001872491177728e+00
1.019999999999999975e-06 5.169083921950154878e+26 4.442717680888483400e+00
1.030000000000000091e-06 5.124903756881273924e+26 4.442453902337756055e+00
1.039999999999999995e-06 5.081515378908775272e+26 4.442016819406720884e+00
1.050000000000000111e-06 5.037601122158318756e+26 4.442004510500197512e+00
1.060000000000000016e-06 4.995757524273303671e+26 4.441613859852639123e+00
1.069999999999999920e-06 4.954522537939572613e+26 4.441184484139919952e+00
1.080000000000000036e-06 4.912688666016609871e+26 4.441307596599122220e+00
1.089999999999999940e-06 4.872793197068122517e+26 4.440923139973717682e+00
1.100000000000000056e-06 4.833052183055002612e+26 4.440147662723784805e+00
1.109999999999999960e-06 4.793285885444876673e+26 4.440010836697930507e+00
1.120000000000000076e-06 4.755281712049695588e+26 4.439691132861616651e+00
1.129999999999999981e-06 4.716656031888874484e+26 4.439926693883494480e+00
1.140000000000000097e-06 4.679465447896127590e+26 4.438909446812265180e+00
1.150000000000000001e-06 4.642121807685582075e+26 4.438855687862280242e+00
1.160000000000000117e-06 4.606428016553636122e+26 4.438682349396819937e+00
1.170000000000000021e-06 4.569774921528033782e+26 4.438200905586279887e+00
1.179999999999999925e-06 4.535193364239472198e+26 4.438003085911693013e+00
1.190000000000000041e-06 4.499678694061185933e+26 4.437349484704361302e+00
1.199999999999999946e-06 4.466140357381211123e+26 4.437194766713993488e+00
1.210000000000000062e-06 4.431622956765493543e+26 4.436793167903617885e+00
1.219999999999999966e-06 4.399084963832411472e+26 4.436672676967954310e+00
1.230000000000000082e-06 4.365615032020346390e+26 4.436098877999271828e+00
1.239999999999999986e-06 4.334035350529307062e+26 4.436016013266208979e+00
1.250000000000000102e-06 4.301547530535830683e+26 4.435411979412713812e+00
1.260000000000000007e-06 4.269529035052430939e+26 4.434831069907913204e+00
1.270000000000000123e-06 4.239318691806853362e+26 4.434802446022330535e+00
1.280000000000000027e-06 4.208203986417483463e+26 4.434255465997445356e+00
1.289999999999999931e-06 4.177540682619988229e+26 4.434065868939645050e+00
1.300000000000000047e-06 4.148282269229960302e+26 4.433353849690816695e+00
1.309999999999999951e-06 4.118789956687466518e+26 4.433597226298313210e+00
1.320000000000000067e-06 4.089379039726159262e+26 4.433120537148864670e+00
1.329999999999999972e-06 4.061338540765342797e+26 4.432454890139278625e+00
1.340000000000000088e-06 4.032728537390870530e+26 4.432010897094759372e+00
1.349999999999999992e-06 4.004509820466078813e+26 4.431583287231270596e+00
1.360000000000000108e-06 3.976675943640263436e+26 4.431166974973794304e+00
1.370000000000000012e-06 3.950151904751395631e+26 4.430571332221682646e+00
1.380000000000000128e-06 3.923119663284534938e+26 4.429902508385457516e+00
1.390000000000000032e-06 3.896386478786323753e+26 4.429532583981386828e+00
1.399999999999999937e-06 3.870008766499482132e+26 4.429183011702240158e+00
1.410000000000000053e-06 3.843979682721525754e+26 4.428848774218121065e+00
1.419999999999999957e-06 3.819194506965741210e+26 4.428326114935675406e+00
1.430000000000000073e-06 3.793837075008092812e+26 4.428021928350570846e+00
1.439999999999999977e-06 3.768808744527169926e+26 4.427732655733198186e+00
1.450000000000000093e-06 3.744104265539644510e+26 4.427458150690785743e+00
1.459999999999999997e-06 3.719717112381782977e+26 4.427198233329472821e+00
1.470000000000000113e-06 3.695701235538470615e+26 4.426653521598961305e+00
1.480000000000000018e-06 3.672796644804943741e+26 4.426225752910523781e+00
1.490000000000000134e-06 3.649320503875475173e+26 4.426008491604328299e+00
1.500000000000000038e-06 3.625849134366230703e+26 4.425061221724268634e+00
1.509999999999999942e-06 3.603051215856858492e+26 4.424871687974476053e+00
1.520000000000000058e-06 3.580520527458467103e+26 4.424337389157549261e+00
1.529999999999999963e-06 3.558192793607627148e+26 4.424175108021901615e+00
1.540000000000000079e-06 3.536139061420991326e+26 4.424026331003434009e+00
1.549999999999999983e-06 3.514354008980057184e+26 4.423890827540006399e+00
1.560000000000000099e-06 3.492554101296277165e+26 4.423023674533530958e+00
1.570000000000000003e-06 3.471350149699656354e+26 4.422613592577372188e+00
1.580000000000000119e-06 3.450345685384983226e+26 4.422516814698199461e+00
1.590000000000000023e-06 3.429609535737466677e+26 4.422371777423763639e+00
1.599999999999999928e-06 3.408886121968234982e+26 4.421253666956911133e+00
1.610000000000000044e-06 3.388622834696975022e+26 4.421194809654322988e+00
1.619999999999999948e-06 3.368598491033063868e+26 4.421148666097895585e+00
1.630000000000000064e-06 3.348540669500772177e+26 4.420369186929667293e+00
1.639999999999999968e-06 3.329053489687718425e+26 4.419983106170034759e+00
1.650000000000000084e-06 3.309722186099307480e+26 4.419973881047215336e+00
1.659999999999999988e-06 3.290614206443679280e+26 4.419976934609398000e+00
1.670000000000000104e-06 3.271515730416536381e+26 4.418939321194137015e+00
1.680000000000000009e-06 3.252860436534192424e+26 4.418905060971829002e+00
1.690000000000000125e-06 3.234196376845179160e+26 4.417891146932361401e+00
1.700000000000000029e-06 3.215194655519368315e+26 4.418134366998076601e+00
1.709999999999999933e-06 3.197155812351645292e+26 4.418195616819915905e+00
1.720000000000000049e-06 3.179132868739105835e+26 4.417153099481422984e+00
1.729999999999999953e-06 3.161583162316299023e+26 4.417237194139189249e+00
1.740000000000000069e-06 3.144193280182498258e+26 4.417024677754894491e+00
1.749999999999999974e-06 3.126706839055426220e+26 4.416325475671451173e+00
1.760000000000000090e-06 3.109647894366896737e+26 4.416443038037486168e+00
1.769999999999999994e-06 3.092578971903825457e+26 4.415514508930597160e+00
1.780000000000000110e-06 3.075187394991157926e+26 4.415776635496872160e+00
1.790000000000000014e-06 3.058488704913014759e+26 4.414867488168121135e+00
1.800000000000000130e-06 3.042161379989912184e+26 4.415032096911403414e+00
1.810000000000000035e-06 3.025831777447360219e+26 4.414081772518878566e+00
1.819999999999999939e-06 3.009851510259478302e+26 4.414262257443532178e+00
1.830000000000000055e-06 2.993151662724585239e+26 4.413577477189921439e+00
1.839999999999999959e-06 2.977526028102310919e+26 4.413716404230394907e+00
1.850000000000000075e-06 2.961812914831210119e+26 4.413177510918795399e+00
1.859999999999999979e-06 2.946562605292789243e+26 4.413029869933952298e+00
1.870000000000000095e-06 2.931173673980321901e+26 4.412510973442739015e+00
1.880000000000000000e-06 2.915548498635045152e+26 4.412617978849701750e+00
1.890000000000000116e-06 2.900540857157705423e+26 4.411748451655832959e+00
1.900000000000000020e-06 2.885856461550476354e+26 4.412008368758797872e+00
1.909999999999999924e-06 2.871153373092846758e+26 4.411150284855931858e+00
1.920000000000000252e-06 2.856106225490967880e+26 4.411612576777151240e+00
1.930000000000000156e-06 2.841705633461190553e+26 4.410774785648678531e+00
1.940000000000000060e-06 2.827699525781537787e+26 4.411078669996953749e+00
1.949999999999999965e-06 2.813587583726570436e+26 4.410259588101096639e+00
1.959999999999999869e-06 2.798908092216059569e+26 4.410006156083494666e+00
1.970000000000000197e-06 2.785290603637127724e+26 4.410015974357124335e+00
1.980000000000000101e-06 2.771551888096026585e+26 4.409536218143096598e+00
1.990000000000000005e-06 2.757566481868413462e+26 4.409743161548679069e+00
1.999999999999999909e-06 2.744147269096732441e+26 4.408966122557050227e+00
2.010000000000000237e-06 2.730800030506110647e+26 4.408581257364697414e+00
2.020000000000000142e-06 2.717231791960506919e+26 4.408745494886250782e+00
2.030000000000000046e-06 2.704144411450235514e+26 4.408376791568851871e+00
2.039999999999999950e-06 2.691457258925673975e+26 4.408385313373831771e+00
2.049999999999999854e-06 2.678044954982712559e+26 4.407882886585110960e+00
2.060000000000000182e-06 2.665345303709203841e+26 4.407472693949421760e+00
2.070000000000000086e-06 2.653023158364319305e+26 4.407510363425372724e+00
2.079999999999999991e-06 2.639985342412979909e+26 4.407032300482473630e+00
2.089999999999999895e-06 2.627644279424052315e+26 4.406646255265423306e+00
2.100000000000000223e-06 2.615659838436356473e+26 4.406768239900761941e+00
2.110000000000000127e-06 2.602992799776173723e+26 4.406245219304256722e+00
2.120000000000000031e-06 2.590982058450369537e+26 4.405945852856893552e+00
2.129999999999999935e-06 2.579346856082407625e+26 4.406030570655130596e+00
2.139999999999999840e-06 2.567092774884618602e+26 4.405589336044944737e+00
2.150000000000000167e-06 2.555428029109167829e+26 4.405255928504326235e+00
2.160000000000000072e-06 2.543533509111696987e+26 4.405522092668777923e+00
2.169999999999999976e-06 2.532114263567894824e+26 4.404942669766876762e+00
2.179999999999999880e-06 2.520768732013462870e+26 4.404632427533885952e+00
2.190000000000000208e-06 2.508982372424917227e+26 4.404225154240132056e+00
2.200000000000000112e-06 2.498086109912131808e+26 4.404359027773709911e+00
2.210000000000000016e-06 2.486479382929883884e+26 4.404231780002914931e+00
2.219999999999999921e-06 2.475574534354242873e+26 4.403683671315487658e+00
2.230000000000000248e-06 2.464976676126502367e+26 4.403843385504791819e+00
2.240000000000000153e-06 2.453704042686263801e+26 4.403473224172538281e+00
2.250000000000000057e-06 2.443061511155420708e+26 4.403208937596104988e+00
2.259999999999999961e-06 2.431998084327742011e+26 4.402791128687854716e+00
2.269999999999999866e-06 2.421768404413920345e+26 4.403038788962780892e+00
2.280000000000000193e-06 2.410855481251853353e+26 4.402956351453858552e+00
2.290000000000000098e-06 2.400626584423564153e+26 4.402395444182538142e+00
2.300000000000000002e-06 2.389929709572493805e+26 4.402061989145733989e+00
2.309999999999999906e-06 2.379879915235784849e+26 4.401518574474329704e+00
2.320000000000000234e-06 2.369554859650188069e+26 4.401952849800558454e+00
2.330000000000000138e-06 2.359638496613539876e+26 4.401741495100519153e+00
2.340000000000000042e-06 2.349389208007175543e+26 4.401370691219791631e+00
2.349999999999999947e-06 2.339671526805786672e+26 4.400912717760761872e+00
2.359999999999999851e-06 2.329703581179935254e+26 4.401309643669698346e+00
2.370000000000000179e-06 2.320122515340132578e+26 4.401123677252926747e+00
2.380000000000000083e-06 2.310124602382758370e+26 4.400835190435843813e+00
2.389999999999999987e-06 2.300746140999347301e+26 4.400344336589449235e+00
2.399999999999999891e-06 2.290924327309265045e+26 4.400005811259900312e+00
2.410000000000000219e-06 2.281701919520072504e+26 4.399524503998585523e+00
2.420000000000000123e-06 2.272174277476978700e+26 4.400336182285633946e+00
2.430000000000000028e-06 2.263107730070582970e+26 4.399869904508401319e+00
2.439999999999999932e-06 2.253603944245974639e+26 4.399553083169172929e+00
2.450000000000000260e-06 2.244676222725134643e+26 4.399156870286619281e+00
2.460000000000000164e-06 2.235328118014487779e+26 4.398853251757814498e+00
2.470000000000000068e-06 2.226559741825312435e+26 4.398402796402494097e+00
2.479999999999999972e-06 2.217492365206846635e+26 4.399256077572087698e+00
2.489999999999999877e-06 2.208368613945153748e+26 4.398965779241322593e+00
2.500000000000000205e-06 2.199817876097452953e+26 4.398540024355708233e+00
2.510000000000000109e-06 2.190841965917890699e+26 4.398261395462811585e+00
2.520000000000000013e-06 2.182419457487953934e+26 4.397904757533719788e+00
2.529999999999999917e-06 2.173661897322498834e+26 4.397631066172048797e+00
2.540000000000000245e-06 2.164861746138356940e+26 4.397695877197590697e+00
2.550000000000000149e-06 2.156655741815340305e+26 4.397296111521304063e+00
2.560000000000000054e-06 2.148192472712897782e+26 4.397861486231117389e+00
2.569999999999999958e-06 2.140116989577217885e+26 4.397472519049385298e+00
2.579999999999999862e-06 2.131624735571438529e+26 4.397226124840888595e+00
2.590000000000000190e-06 2.123198990479622839e+26 4.396984323099486502e+00
2.600000000000000094e-06 2.115306192616370023e+26 4.396671890372577884e+00
2.609999999999999998e-06 2.107009065221240163e+26 4.396433211965359966e+00
2.619999999999999903e-06 2.099212824866935445e+26 4.396400188597987757e+00
2.630000000000000230e-06 2.091041976318717974e+26 4.396177146769740141e+00
2.640000000000000135e-06 2.082934259121078616e+26 4.395957669448589122e+00
2.650000000000000039e-06 2.075344584424862353e+26 4.395668861670740668e+00
