# z (um)	 Electron density (m^-3)
0.000000000000000000e+00 4.837977723214781920e+25 5.435985974388424680e+00
1.000000000000000021e-08 4.832656831387162690e+25 5.436295247167744371e+00
2.000000000000000042e-08 4.826975989339840466e+25 5.436066644604341747e+00
3.000000000000000394e-08 4.821678303863754724e+25 5.436376439509250424e+00
4.000000000000000084e-08 4.816019738659379817e+25 5.436148399032917133e+00
4.999999999999999774e-08 4.810383749612287772e+25 5.435839961207899584e+00
6.000000000000000787e-08 4.805105048274499440e+25 5.436228455189642261e+00
7.000000000000000477e-08 4.799491389235702735e+25 5.435923287382298241e+00
8.000000000000000167e-08 4.794235556689184489e+25 5.436312284293038921e+00
8.999999999999999857e-08 4.788643779412852753e+25 5.436007657761220635e+00
9.999999999999999547e-08 4.783051812033807280e+25 5.435781098262554067e+00
1.100000000000000056e-07 4.777836963209951355e+25 5.436090352845009299e+00
1.200000000000000157e-07 4.772268301968554441e+25 5.435864403551514457e+00
1.299999999999999994e-07 4.767074685495569603e+25 5.436176712613563389e+00
1.400000000000000095e-07 4.761525955733766497e+25 5.435951227520755324e+00
1.499999999999999932e-07 4.755999677909523514e+25 5.435647903137668102e+00
1.600000000000000033e-07 4.750825799106960752e+25 5.436039005349318387e+00
1.700000000000000135e-07 4.745322086888509808e+25 5.435733779517401665e+00
1.799999999999999971e-07 4.740168819287828764e+25 5.436125341864610938e+00
1.900000000000000073e-07 4.734685175040827257e+25 5.435823097199418363e+00
1.999999999999999909e-07 4.729201144859592225e+25 5.435599052713607549e+00
2.100000000000000011e-07 4.724091598988588367e+25 5.435913460303829048e+00
2.200000000000000112e-07 4.718628719014330904e+25 5.435689956265904677e+00
2.299999999999999949e-07 4.713537436836043206e+25 5.436002345834106464e+00
2.400000000000000315e-07 4.708095614401216371e+25 5.435779405701201661e+00
2.499999999999999887e-07 4.702677530424881352e+25 5.435478585164103649e+00
2.599999999999999988e-07 4.697605852620400161e+25 5.435872351680969494e+00
2.700000000000000090e-07 4.692207022463444107e+25 5.435572001747953408e+00
2.800000000000000191e-07 4.687166727015034836e+25 5.435888169418808147e+00
2.900000000000000292e-07 4.681776903185423380e+25 5.435664120837734536e+00
2.999999999999999864e-07 4.676411116208497517e+25 5.435364577578203793e+00
3.099999999999999966e-07 4.671389590938084648e+25 5.435759659563173862e+00
3.200000000000000067e-07 4.666042750658016944e+25 5.435460569824997812e+00
3.300000000000000168e-07 4.660695288021166963e+25 5.435239761814005810e+00
3.400000000000000270e-07 4.655716264572931381e+25 5.435557628806158448e+00
3.499999999999999842e-07 4.650389187240714479e+25 5.435337353130833549e+00
3.599999999999999943e-07 4.645427566687276644e+25 5.435653387384745017e+00
3.700000000000000044e-07 4.640120750028223592e+25 5.435433654081939459e+00
3.800000000000000146e-07 4.634837105720419205e+25 5.435135966535145968e+00
3.900000000000000247e-07 4.629894168641682693e+25 5.435533186731568378e+00
3.999999999999999819e-07 4.624628966657198871e+25 5.435235911781658658e+00
4.099999999999999920e-07 4.619705388237611628e+25 5.435633544527766148e+00
4.200000000000000022e-07 4.614461095204185972e+25 5.435334805618539988e+00
4.300000000000000123e-07 4.609214992159864041e+25 5.435116473942785298e+00
4.400000000000000224e-07 4.604331336324710394e+25 5.435436625060907190e+00
4.500000000000000326e-07 4.599105044568723247e+25 5.435218797950218672e+00
4.599999999999999898e-07 4.594242086707000297e+25 5.435539466858327451e+00
4.699999999999999999e-07 4.589046568976223731e+25 5.435243858758821212e+00
4.800000000000000630e-07 4.583850154727685910e+25 5.435026614622501917e+00
4.899999999999999672e-07 4.579013306149729908e+25 5.435346060641728094e+00
4.999999999999999774e-07 4.573838062903958063e+25 5.435129469206933628e+00
5.099999999999999875e-07 4.568682297419879571e+25 5.434834615799252866e+00
5.199999999999999976e-07 4.563863424735505782e+25 5.435235119320193320e+00
5.300000000000000078e-07 4.558727085636529433e+25 5.434940786966405035e+00
5.400000000000000179e-07 4.553928583224069897e+25 5.435341844590434235e+00
5.500000000000000281e-07 4.548811591757869485e+25 5.435048035787935383e+00
5.600000000000000382e-07 4.543692792644033886e+25 5.434830931104008833e+00
5.700000000000000483e-07 4.538931616734570750e+25 5.435154310005767542e+00
5.800000000000000585e-07 4.533834403485098742e+25 5.434939715718669184e+00
5.899999999999999627e-07 4.529091737727386967e+25 5.435263519077827787e+00
5.999999999999999728e-07 4.524012031347441376e+25 5.435049315382828539e+00
6.099999999999999830e-07 4.518954672282521615e+25 5.434756941005451480e+00
6.199999999999999931e-07 4.514228620065888868e+25 5.435159985120047388e+00
6.300000000000000033e-07 4.509187705348112226e+25 5.434866275988857964e+00
6.400000000000000134e-07 4.504157326942181404e+25 5.434574436075366499e+00
6.500000000000000235e-07 4.499460152022014818e+25 5.434978423119200208e+00
6.600000000000000337e-07 4.494448483918611339e+25 5.434687084275974023e+00
6.700000000000000438e-07 4.489767777040888942e+25 5.435091330597325410e+00
6.800000000000000539e-07 4.484774718100153249e+25 5.434800482250988551e+00
6.900000000000000641e-07 4.479781969606469823e+25 5.434588418457884096e+00
6.999999999999999683e-07 4.475138081322104683e+25 5.434913326546907619e+00
7.099999999999999785e-07 4.470162191546116662e+25 5.434701623271323889e+00
7.199999999999999886e-07 4.465536997728822921e+25 5.435028523412622548e+00
7.299999999999999987e-07 4.460581075237514624e+25 5.434817461122403159e+00
7.400000000000000089e-07 4.455643831764802630e+25 5.434527801087740251e+00
7.500000000000000190e-07 4.451034352966633431e+25 5.434934006338489887e+00
7.600000000000000291e-07 4.446116914488416299e+25 5.434644988639540486e+00
7.700000000000000393e-07 4.441207261356147421e+25 5.434355942920071847e+00
7.800000000000000494e-07 4.436623170240953439e+25 5.434761447144522251e+00
7.900000000000000595e-07 4.431731615304172369e+25 5.434472909854277667e+00
7.999999999999999638e-07 4.427167583287762407e+25 5.434880447037587992e+00
8.099999999999999739e-07 4.422294076306382976e+25 5.434592400392267209e+00
8.199999999999999841e-07 4.417419130006642608e+25 5.434383121889438506e+00
8.299999999999999942e-07 4.412891926665185534e+25 5.434712789015636147e+00
8.400000000000000043e-07 4.408034912357685872e+25 5.434504014103165304e+00
8.500000000000000145e-07 4.403197842032247710e+25 5.434216685606533481e+00
8.600000000000000246e-07 4.398683194741869316e+25 5.434624334200536921e+00
8.700000000000000347e-07 4.393865471500921014e+25 5.434337706694592818e+00
8.800000000000000449e-07 4.389379707782853648e+25 5.434668436335951647e+00
8.900000000000000550e-07 4.384567429882798209e+25 5.434460777813463928e+00
9.000000000000000652e-07 4.379776482407955111e+25 5.434174794316486867e+00
9.099999999999999694e-07 4.375305608219872268e+25 5.434584931950587894e+00
9.199999999999999795e-07 4.370530595467214259e+25 5.434299254447367389e+00
9.299999999999999897e-07 4.365755526551303017e+25 5.434092670858490237e+00
9.399999999999999998e-07 4.361320576670329141e+25 5.434424790192652566e+00
9.500000000000000100e-07 4.356560168643094883e+25 5.434217366277837691e+00
9.600000000000001260e-07 4.352141944595475612e+25 5.434549888094081460e+00
9.700000000000000302e-07 4.347401487905105353e+25 5.434344306936123026e+00
9.799999999999999345e-07 4.342678944455682022e+25 5.434059818871500802e+00
9.900000000000000505e-07 4.338285602229996862e+25 5.434393104375183192e+00
9.999999999999999547e-07 4.333571147666265913e+25 5.434188074105200883e+00
1.010000000000000071e-06 4.328874491927661955e+25 5.433904177694010684e+00
1.019999999999999975e-06 4.324495299205989237e+25 5.434316957041546381e+00
1.030000000000000091e-06 4.319817184306812831e+25 5.434033728455640144e+00
1.039999999999999995e-06 4.315453208257255950e+25 5.434445892228454866e+00
1.050000000000000111e-06 4.310790433723567300e+25 5.434162931150321896e+00
1.060000000000000016e-06 4.306127415546765744e+25 5.433959224885777317e+00
1.069999999999999920e-06 4.301799632933359508e+25 5.434294171568677001e+00
1.080000000000000036e-06 4.297162379830954765e+25 5.434011794079474988e+00
1.089999999999999940e-06 4.292523309123583775e+25 5.433808415359327348e+00
1.100000000000000056e-06 4.288221388053224044e+25 5.434144332413227474e+00
1.109999999999999960e-06 4.283599045384486104e+25 5.433941433309003699e+00
1.120000000000000076e-06 4.279311710123764251e+25 5.434277498351826274e+00
1.129999999999999981e-06 4.274707594858615458e+25 5.434075305188262206e+00
1.140000000000000097e-06 4.270119674258498840e+25 5.433793266650502218e+00
1.150000000000000001e-06 4.265845941004674791e+25 5.434209026313950197e+00
1.160000000000000117e-06 4.261277360943303985e+25 5.433928521489546526e+00
1.170000000000000021e-06 4.256705278491175662e+25 5.433726999211629938e+00
1.179999999999999925e-06 4.252465848693936449e+25 5.434064415420745142e+00
1.190000000000000041e-06 4.247922118925062370e+25 5.433784535010770966e+00
1.199999999999999946e-06 4.243374854372978125e+25 5.433583588512059137e+00
1.210000000000000062e-06 4.239159033942267881e+25 5.433921777954170196e+00
1.219999999999999966e-06 4.234629555304032486e+25 5.433721558574135635e+00
1.230000000000000082e-06 4.230429388936609625e+25 5.434060115786841116e+00
1.239999999999999986e-06 4.225914496783589848e+25 5.433860137805893054e+00
1.250000000000000102e-06 4.221419836678306034e+25 5.433581422530118665e+00
1.260000000000000007e-06 4.217241562252766809e+25 5.433920125636305443e+00
1.270000000000000123e-06 4.212750975191359512e+25 5.433720703257042928e+00
1.280000000000000027e-06 4.208280508106758035e+25 5.433442585276451631e+00
1.289999999999999931e-06 4.204116366048625274e+25 5.433861643547810871e+00
1.300000000000000047e-06 4.199660202371574183e+25 5.433583719308489712e+00
1.309999999999999951e-06 4.195203447846886195e+25 5.433385359056316588e+00
1.320000000000000067e-06 4.191072563991517808e+25 5.433725884194133826e+00
1.329999999999999972e-06 4.186631582095958740e+25 5.433527976972174045e+00
1.340000000000000088e-06 4.182515933721396193e+25 5.433868830691395146e+00
1.349999999999999992e-06 4.178099406075832947e+25 5.433591896400802312e+00
1.360000000000000108e-06 4.173682269317192597e+25 5.433394505636410798e+00
1.370000000000000012e-06 4.169589327685484997e+25 5.433736063839905484e+00
1.380000000000000128e-06 4.165186269954219039e+25 5.433538872674231079e+00
1.390000000000000032e-06 4.160803066907542074e+25 5.433262833334294051e+00
1.399999999999999937e-06 4.156720987319355514e+25 5.433683955604948324e+00
1.410000000000000053e-06 4.152351742487903137e+25 5.433408129425608912e+00
1.419999999999999957e-06 4.147992034468157130e+25 5.433132701852103175e+00
1.430000000000000073e-06 4.143933883746031184e+25 5.433554896125634137e+00
1.439999999999999977e-06 4.139589578643450718e+25 5.433279939763389521e+00
1.450000000000000093e-06 4.135546324414653013e+25 5.433702508638836193e+00
1.459999999999999997e-06 4.131215797327565082e+25 5.433427751063970135e+00
1.470000000000000113e-06 4.126884519273842966e+25 5.433232744947844139e+00
1.480000000000000018e-06 4.122873583701393548e+25 5.433576665347438883e+00
1.490000000000000134e-06 4.118555940770128592e+25 5.433381862536394991e+00
1.500000000000000038e-06 4.114257829337019698e+25 5.433108045985058254e+00
1.509999999999999942e-06 4.110268768946127445e+25 5.433452687012149340e+00
1.520000000000000058e-06 4.105975526417545075e+25 5.433258696326307202e+00
1.529999999999999963e-06 4.101698615527703750e+25 5.432985174826886698e+00
1.540000000000000079e-06 4.097721119338764238e+25 5.433409853306347514e+00
1.549999999999999983e-06 4.093460644164539835e+25 5.433137042236759306e+00
1.560000000000000099e-06 4.089497555119133315e+25 5.433562052918498253e+00
1.570000000000000003e-06 4.085251911304065972e+25 5.433289665203206553e+00
1.580000000000000119e-06 4.081012363986515125e+25 5.433017109141738743e+00
1.590000000000000023e-06 4.077070738254918917e+25 5.433442748008974199e+00
1.599999999999999928e-06 4.072847466815472130e+25 5.433170891873534636e+00
1.610000000000000044e-06 4.068620183849936068e+25 5.432978366026115502e+00
1.619999999999999948e-06 4.064711502534835152e+25 5.433325419980307380e+00
1.630000000000000064e-06 4.060498887573735297e+25 5.433133334892896293e+00
1.639999999999999968e-06 4.056303908145377878e+25 5.432861798614638360e+00
1.650000000000000084e-06 4.052416424557386015e+25 5.433209537346342266e+00
1.659999999999999988e-06 4.048225994746196578e+25 5.433017973042274740e+00
1.670000000000000104e-06 4.044052993393835063e+25 5.432747394384290551e+00
1.680000000000000009e-06 4.040175059908346484e+25 5.433175066229614991e+00
1.690000000000000125e-06 4.036016694845637056e+25 5.432904560977502406e+00
1.700000000000000029e-06 4.032154349935333604e+25 5.433332877678348716e+00
1.709999999999999933e-06 4.028010433041002738e+25 5.433062821725907376e+00
1.720000000000000049e-06 4.023875490481162423e+25 5.432793185787677004e+00
1.729999999999999953e-06 4.020032486640272903e+25 5.433221882870928887e+00
1.740000000000000069e-06 4.015911843175264578e+25 5.432952691788488941e+00
1.749999999999999974e-06 4.011787051924273941e+25 5.432763001247288948e+00
1.760000000000000090e-06 4.007976199159891896e+25 5.433112979421728994e+00
1.769999999999999994e-06 4.003865558280982427e+25 5.432923739793483087e+00
1.780000000000000110e-06 3.999772161365912051e+25 5.432654880436414757e+00
1.790000000000000014e-06 3.995981695802947774e+25 5.433005530508637548e+00
1.800000000000000130e-06 3.991894120091241053e+25 5.432816480554819805e+00
1.810000000000000035e-06 3.987823472666562819e+25 5.432548435761963113e+00
1.819999999999999939e-06 3.984041774499347508e+25 5.432979103283655853e+00
1.830000000000000055e-06 3.979985012362008024e+25 5.432711472855186408e+00
1.839999999999999959e-06 3.975933871035311255e+25 5.432443663359365793e+00
1.850000000000000075e-06 3.972173829851484677e+25 5.432875242197771293e+00
1.859999999999999979e-06 3.968136510329013920e+25 5.432607847596834461e+00
1.870000000000000095e-06 3.964098003174875524e+25 5.432420690630239690e+00
1.880000000000000000e-06 3.960366333903315016e+25 5.432772770024369535e+00
1.890000000000000116e-06 3.956340078196731954e+25 5.432585760156539045e+00
1.900000000000000020e-06 3.952623305042277731e+25 5.432938436363754064e+00
1.909999999999999924e-06 3.948620669768257557e+25 5.432671998064080299e+00
1.920000000000000252e-06 3.944616855718696960e+25 5.432485786579869469e+00
1.930000000000000156e-06 3.940918441807438211e+25 5.432838830513555095e+00
1.940000000000000060e-06 3.936928318669558204e+25 5.432653061623184954e+00
1.949999999999999965e-06 3.932953530988556065e+25 5.432387232213649497e+00
1.959999999999999869e-06 3.929276417567675948e+25 5.432741227642058135e+00
1.970000000000000197e-06 3.925305390858956743e+25 5.432555680494470352e+00
1.980000000000000101e-06 3.921352686830710569e+25 5.432290684020245841e+00
1.990000000000000005e-06 3.917683822953170011e+25 5.432724878247153555e+00
1.999999999999999909e-06 3.913744532181274417e+25 5.432460302978445732e+00
2.010000000000000237e-06 3.909800820194384760e+25 5.432275583260931739e+00
2.020000000000000142e-06 3.906162647517275805e+25 5.432630666715780876e+00
2.030000000000000046e-06 3.902243867162576408e+25 5.432365677055686071e+00
2.039999999999999950e-06 3.898321828723200977e+25 5.432181737949465905e+00
2.049999999999999854e-06 3.894701234209014100e+25 5.432537173894627536e+00
2.060000000000000182e-06 3.890792335998844702e+25 5.432353672290865632e+00
2.070000000000000086e-06 3.886899958478914507e+25 5.432090219454492441e+00
2.079999999999999991e-06 3.883298324586457314e+25 5.432446301758715457e+00
2.089999999999999895e-06 3.879409272334153622e+25 5.432263298345724856e+00
2.100000000000000223e-06 3.875535117470532824e+25 5.432000096887512619e+00
2.110000000000000127e-06 3.871944222903758711e+25 5.432437102817207375e+00
2.120000000000000031e-06 3.868083061050480646e+25 5.432174311743253270e+00
2.129999999999999935e-06 3.864506723178680235e+25 5.432610814073188799e+00
2.139999999999999840e-06 3.860658543339298474e+25 5.432348416101393518e+00
2.150000000000000167e-06 3.856818624148411760e+25 5.432086397221231877e+00
2.160000000000000072e-06 3.853259158666617022e+25 5.432524285155793997e+00
2.169999999999999976e-06 3.849430610059891625e+25 5.432262396457019804e+00
2.179999999999999880e-06 3.845600647598618416e+25 5.432081083059772553e+00
2.190000000000000208e-06 3.842068008086944197e+25 5.432439089446866376e+00
2.200000000000000112e-06 3.838260554130119358e+25 5.432177965981843215e+00
2.210000000000000016e-06 3.834450545951747616e+25 5.431995955419521849e+00
2.219999999999999921e-06 3.830938051782415761e+25 5.432354820998168243e+00
2.230000000000000248e-06 3.827140382263378616e+25 5.432174392621865522e+00
2.240000000000000153e-06 3.823357341746403001e+25 5.431913574790263155e+00
2.250000000000000057e-06 3.819863251578430908e+25 5.432273056088763319e+00
2.259999999999999961e-06 3.816083236646299474e+25 5.432092871657197897e+00
2.269999999999999866e-06 3.812322901135831761e+25 5.431831827668976764e+00
2.280000000000000193e-06 3.808837448451518776e+25 5.432272121813211285e+00
2.290000000000000098e-06 3.805085996888931975e+25 5.432012233404631907e+00
2.300000000000000002e-06 3.801342540300711895e+25 5.431752697776969896e+00
2.309999999999999906e-06 3.797875107784773470e+25 5.432193595829036603e+00
2.320000000000000234e-06 3.794144463383402535e+25 5.431933188427114700e+00
2.330000000000000138e-06 3.790410177079055716e+25 5.431754549653047270e+00
2.340000000000000042e-06 3.786970139694966784e+25 5.432115660852701033e+00
2.349999999999999947e-06 3.783256062946288226e+25 5.431856832702447235e+00
2.359999999999999851e-06 3.779540386274198153e+25 5.431678688474310235e+00
2.370000000000000179e-06 3.776120131093842880e+25 5.432039303834601540e+00
2.380000000000000083e-06 3.772415081168073529e+25 5.431861369164109554e+00
2.389999999999999987e-06 3.768727447076779678e+25 5.431603317307511780e+00
2.399999999999999891e-06 3.765313314113979321e+25 5.432046040051298874e+00
2.410000000000000219e-06 3.761638350228516647e+25 5.431787023754300670e+00
2.420000000000000123e-06 3.757969200344098923e+25 5.431529451982850532e+00
2.430000000000000028e-06 3.754572755934162435e+25 5.431972723524477686e+00
2.439999999999999932e-06 3.750915770299304620e+25 5.431715522808470809e+00
2.450000000000000260e-06 3.747256097620485230e+25 5.431537645603493836e+00
2.460000000000000164e-06 3.743886769787611879e+25 5.431900863970654747e+00
2.470000000000000068e-06 3.740248186107668425e+25 5.431644127624384311e+00
2.479999999999999972e-06 3.736608518303262920e+25 5.431466832701036473e+00
2.489999999999999877e-06 3.733255097674990635e+25 5.431830456929786166e+00
2.500000000000000205e-06 3.729625350103555125e+25 5.431654787002050178e+00
2.510000000000000109e-06 3.726013353514124562e+25 5.431397317632582045e+00
2.520000000000000013e-06 3.722678866949425341e+25 5.431761664787697619e+00
2.529999999999999917e-06 3.719065594294722452e+25 5.431586320531407885e+00
2.540000000000000245e-06 3.715471579654170250e+25 5.431329313545441018e+00
2.550000000000000149e-06 3.712144796150838529e+25 5.431774851062610487e+00
2.560000000000000054e-06 3.708560363317401531e+25 5.431519508088565651e+00
2.569999999999999958e-06 3.704984081324494876e+25 5.431262971961289487e+00
2.579999999999999862e-06 3.701674183067215837e+25 5.431709078952475345e+00
2.590000000000000190e-06 3.698107832138363781e+25 5.431452824635275789e+00
2.600000000000000094e-06 3.694537557437933538e+25 5.431278891552311805e+00
2.609999999999999998e-06 3.691253727246679447e+25 5.431644779099910281e+00
2.619999999999999903e-06 3.687706420921167885e+25 5.431389097832899360e+00
2.630000000000000230e-06 3.684153556650722650e+25 5.431215636399195468e+00
2.640000000000000135e-06 3.680888447432735204e+25 5.431580746442747909e+00
2.650000000000000039e-06 3.677356346052352613e+25 5.431326882389887700e+00
