# z (um)	 Electron density (m^-3)
0.000000000000000000e+00 6.388747999643743132e+27 3.075767042359910164e+00
1.000000000000000021e-08 5.712283165176545695e+27 3.067391551145123518e+00
2.000000000000000042e-08 5.178289976886330922e+27 3.059185949399854998e+00
3.000000000000000394e-08 4.748962386893975285e+27 3.050752278550163954e+00
4.000000000000000084e-08 4.393532903541690733e+27 3.043172562656067281e+00
4.999999999999999774e-08 4.095946208770196028e+27 3.035725642223216170e+00
6.000000000000000787e-08 3.843903976002839925e+27 3.028986471956904847e+00
7.000000000000000477e-08 3.626078436039326725e+27 3.022381884343037672e+00
8.000000000000000167e-08 3.437014801103030512e+27 3.016427510918468169e+00
8.999999999999999857e-08 3.270887126589651760e+27 3.011153492889019567e+00
9.999999999999999547e-08 3.122895025928593893e+27 3.006134261373265115e+00
1.100000000000000056e-07 2.991278814403523542e+27 3.001183443678669516e+00
1.200000000000000157e-07 2.872775795480832567e+27 2.997084998051006810e+00
1.299999999999999994e-07 2.764578465602380940e+27 2.993076730451682987e+00
1.400000000000000095e-07 2.666258238006709088e+27 2.989866774588820775e+00
1.499999999999999932e-07 2.576203145508748646e+27 2.986773693200295732e+00
1.600000000000000033e-07 2.493606001957525431e+27 2.983887208260426416e+00
1.700000000000000135e-07 2.416910153755645844e+27 2.980983645385116176e+00
1.799999999999999971e-07 2.345284858445774064e+27 2.978757844482645911e+00
1.900000000000000073e-07 2.279172893187954002e+27 2.976466070662295849e+00
1.999999999999999909e-07 2.217227389812957624e+27 2.974815539579014345e+00
2.100000000000000011e-07 2.159614329428620664e+27 2.972870895714902151e+00
2.200000000000000112e-07 2.105158179183788392e+27 2.971541553698755500e+00
2.299999999999999949e-07 2.053659194523889884e+27 2.970356936124220137e+00
2.400000000000000315e-07 2.005543162290482996e+27 2.969032092339639828e+00
2.499999999999999887e-07 1.959794640550560373e+27 2.968015583061716089e+00
2.599999999999999988e-07 1.916469566543098039e+27 2.966633826945617169e+00
2.700000000000000090e-07 1.875193281518293487e+27 2.965623243411195098e+00
2.800000000000000191e-07 1.835924341587903032e+27 2.964906863388480751e+00
2.900000000000000292e-07 1.798713952276592147e+27 2.964279666899690913e+00
2.999999999999999864e-07 1.762987029227308046e+27 2.964008868674262942e+00
3.099999999999999966e-07 1.728882259188055271e+27 2.963242949927001657e+00
3.200000000000000067e-07 1.696608718358727098e+27 2.962636591338146275e+00
3.300000000000000168e-07 1.665345430929821317e+27 2.962281501833247788e+00
3.400000000000000270e-07 1.635629215414926307e+27 2.962002030061992919e+00
3.499999999999999842e-07 1.606956386721499196e+27 2.961479133689136845e+00
3.599999999999999943e-07 1.579322313457476304e+27 2.961296995157088663e+00
3.700000000000000044e-07 1.552713218214670069e+27 2.960958417506892815e+00
3.800000000000000146e-07 1.527036849518786090e+27 2.960785553346720889e+00
3.900000000000000247e-07 1.502644192345889624e+27 2.960535959382174731e+00
3.999999999999999819e-07 1.478887528381134371e+27 2.960528821198831206e+00
4.099999999999999920e-07 1.456030230931100960e+27 2.960559613238061605e+00
4.200000000000000022e-07 1.434104093999224905e+27 2.960141677740936395e+00
4.300000000000000123e-07 1.412755353249195560e+27 2.960243896447919187e+00
4.400000000000000224e-07 1.391774878881839846e+27 2.960079423668346088e+00
4.500000000000000326e-07 1.371997927609571152e+27 2.959758208730850715e+00
4.599999999999999898e-07 1.352679755935263959e+27 2.959751185238281845e+00
4.699999999999999999e-07 1.333696103945570014e+27 2.959671530531520212e+00
4.800000000000000630e-07 1.315863739378015913e+27 2.959716087661300232e+00
4.899999999999999672e-07 1.298072334830804844e+27 2.959772759974004241e+00
4.999999999999999774e-07 1.281055415564169235e+27 2.959782388484038407e+00
5.099999999999999875e-07 1.264317618153804627e+27 2.959599756647220747e+00
5.199999999999999976e-07 1.248047994737196069e+27 2.959723780578343177e+00
5.300000000000000078e-07 1.232219135413606890e+27 2.959583010916888135e+00
5.400000000000000179e-07 1.217209239429697191e+27 2.959761200343634435e+00
5.500000000000000281e-07 1.202126126973385215e+27 2.959658661833350912e+00
5.600000000000000382e-07 1.187596660678473547e+27 2.959573709784166784e+00
5.700000000000000483e-07 1.173306463790041700e+27 2.959991677162629564e+00
5.800000000000000585e-07 1.159646656497815294e+27 2.959937633565870030e+00
5.899999999999999627e-07 1.146269958975226020e+27 2.959990783214883958e+00
5.999999999999999728e-07 1.133188520550747792e+27 2.959969587594720064e+00
6.099999999999999830e-07 1.120515838691338392e+27 2.960050044968161931e+00
6.199999999999999931e-07 1.108073314284388250e+27 2.960056885428176354e+00
6.300000000000000033e-07 1.095917271947298673e+27 2.960275558850431032e+00
6.400000000000000134e-07 1.084107564225532140e+27 2.959913128106854252e+00
6.500000000000000235e-07 1.072423848639117112e+27 2.960250468446675942e+00
6.600000000000000337e-07 1.061158582500329561e+27 2.960304435074128548e+00
6.700000000000000438e-07 1.049929313395078248e+27 2.960161954095072989e+00
6.800000000000000539e-07 1.039276669651020419e+27 2.960331145483761084e+00
6.900000000000000641e-07 1.028542861167018145e+27 2.960621099766205244e+00
6.999999999999999683e-07 1.018142841898710823e+27 2.960508583785073533e+00
7.099999999999999785e-07 1.008120570687202546e+27 2.960707835222026407e+00
7.199999999999999886e-07 9.981658234940182998e+26 2.960635124174118893e+00
7.299999999999999987e-07 9.884189398949154410e+26 2.960552083596005968e+00
7.400000000000000089e-07 9.788184513649984742e+26 2.960982749628458421e+00
7.500000000000000190e-07 9.696926872402902158e+26 2.960936404131030653e+00
7.600000000000000291e-07 9.604773993548464293e+26 2.960878661542406753e+00
7.700000000000000393e-07 9.515099844335081941e+26 2.960850523445032856e+00
7.800000000000000494e-07 9.427203321850510812e+26 2.960810768687445194e+00
7.900000000000000595e-07 9.341414044173981453e+26 2.961280677407597484e+00
7.999999999999999638e-07 9.255782876333339188e+26 2.961254834471194197e+00
8.099999999999999739e-07 9.172059129747641596e+26 2.961240755014503456e+00
8.199999999999999841e-07 9.091641963431877320e+26 2.961542760275757580e+00
8.299999999999999942e-07 9.011383037551735651e+26 2.961538407218636149e+00
8.400000000000000043e-07 8.934646533691966940e+26 2.961559947926751590e+00
8.500000000000000145e-07 8.856471648656893026e+26 2.961571759372867430e+00
8.600000000000000246e-07 8.781582293836604851e+26 2.961399979145280970e+00
8.700000000000000347e-07 8.707073363944849006e+26 2.961422067411415782e+00
8.800000000000000449e-07 8.635300333095815123e+26 2.961469722802794635e+00
8.900000000000000550e-07 8.562522539954487367e+26 2.961798965355405766e+00
9.000000000000000652e-07 8.491078573334426278e+26 2.961841908047230465e+00
9.099999999999999694e-07 8.422123683481132818e+26 2.961698978325964404e+00
9.199999999999999795e-07 8.355817575854585869e+26 2.961770217628701296e+00
9.299999999999999897e-07 8.288165618459227563e+26 2.962122712996785090e+00
9.399999999999999998e-07 8.223283715048977848e+26 2.961701550345380962e+00
9.500000000000000100e-07 8.157875144508038689e+26 2.962065069940083895e+00
9.600000000000001260e-07 8.094132494336285235e+26 2.962141132989915437e+00
9.700000000000000302e-07 8.031854388563793777e+26 2.962031360478352582e+00
9.799999999999999345e-07 7.969311784870689296e+26 2.962313779907041145e+00
9.900000000000000505e-07 7.909424620344483860e+26 2.962012290630260836e+00
9.999999999999999547e-07 7.850913927773979061e+26 2.962420972545933395e+00
1.010000000000000071e-06 7.791755591344714806e+26 2.962234027281583248e+00
1.019999999999999975e-06 7.734207749136598524e+26 2.962433698144396388e+00
1.030000000000000091e-06 7.677169139767948944e+26 2.962353069793095095e+00
1.039999999999999995e-06 7.620286455899146758e+26 2.962663085348496317e+00
1.050000000000000111e-06 7.565489547877817426e+26 2.962591067539780187e+00
1.060000000000000016e-06 7.512354004273072402e+26 2.962325020354083627e+00
1.069999999999999920e-06 7.458279660590424973e+26 2.962744986775662337e+00
1.080000000000000036e-06 7.405935233834406397e+26 2.962685639388798364e+00
1.089999999999999940e-06 7.352450236504401409e+26 2.962512168063543783e+00
1.100000000000000056e-06 7.299822800050914839e+26 2.962940135157649646e+00
1.109999999999999960e-06 7.249780951982563649e+26 2.962892006403765155e+00
1.120000000000000076e-06 7.200461694872944983e+26 2.962847487933046420e+00
1.129999999999999981e-06 7.152407505714198790e+26 2.962608747093503414e+00
1.140000000000000097e-06 7.103604013795863630e+26 2.963054709684456611e+00
1.150000000000000001e-06 7.055926124555671494e+26 2.963017260984971202e+00
1.160000000000000117e-06 7.009354837634318406e+26 2.962987042606124000e+00
1.170000000000000021e-06 6.962095452083249499e+26 2.962937070029973086e+00
1.179999999999999925e-06 6.916818522907347205e+26 2.962913733452054998e+00
1.190000000000000041e-06 6.871736647830514079e+26 2.962889874216291020e+00
1.199999999999999946e-06 6.827694574814423040e+26 2.962873425041748110e+00
1.210000000000000062e-06 6.783410510364811589e+26 2.963343530269795689e+00
1.219999999999999966e-06 6.739043060012946213e+26 2.963313547419952787e+00
1.230000000000000082e-06 6.696357643459344450e+26 2.963303213160852767e+00
1.239999999999999986e-06 6.654866283515910974e+26 2.963297420922394121e+00
1.250000000000000102e-06 6.612775182916338487e+26 2.963495181868549544e+00
1.260000000000000007e-06 6.570048371699780897e+26 2.963474127255408153e+00
1.270000000000000123e-06 6.529974160549436866e+26 2.963481061111631565e+00
1.280000000000000027e-06 6.490415237116131133e+26 2.963491143108580861e+00
1.289999999999999931e-06 6.451596781963437374e+26 2.963497009990190723e+00
1.300000000000000047e-06 6.411599566294496085e+26 2.963492673394252819e+00
1.309999999999999951e-06 6.373113990945810341e+26 2.963511791598645306e+00
1.320000000000000067e-06 6.334674064073476705e+26 2.963825811403855592e+00
1.329999999999999972e-06 6.296770134634676453e+26 2.963826951873838933e+00
1.340000000000000088e-06 6.260511587095262593e+26 2.963366820991771178e+00
1.349999999999999992e-06 6.224314640906984462e+26 2.963396825923454436e+00
1.360000000000000108e-06 6.187169042517829039e+26 2.963408647464018220e+00
1.370000000000000012e-06 6.151015586207090624e+26 2.963732566025258475e+00
1.380000000000000128e-06 6.114755499275537073e+26 2.963748975547295661e+00
1.390000000000000032e-06 6.079915560104325396e+26 2.963783519673727884e+00
1.399999999999999937e-06 6.046458991589632396e+26 2.963822125347740588e+00
1.410000000000000053e-06 6.011386464195304754e+26 2.963654219037105353e+00
1.419999999999999957e-06 5.978136608734630665e+26 2.963700124464119678e+00
1.430000000000000073e-06 5.943570040724888876e+26 2.963722361570890307e+00
1.439999999999999977e-06 5.910637931222369941e+26 2.963965885406092848e+00
1.450000000000000093e-06 5.877064580895709863e+26 2.964092702676024871e+00
1.459999999999999997e-06 5.846066876301919164e+26 2.963664446120313656e+00
1.470000000000000113e-06 5.814283254681977432e+26 2.963909262549246471e+00
1.480000000000000018e-06 5.782184996377855135e+26 2.964048081056536610e+00
1.490000000000000134e-06 5.751559184313179131e+26 2.964101100688541823e+00
1.500000000000000038e-06 5.719467612799911713e+26 2.963857216545474405e+00
1.509999999999999942e-06 5.689360992968288452e+26 2.964018801409497250e+00
1.520000000000000058e-06 5.659025800936066734e+26 2.964063231288208478e+00
1.529999999999999963e-06 5.629671521449998020e+26 2.963943035849694763e+00
1.540000000000000079e-06 5.599445784604408032e+26 2.963995236268085254e+00
1.549999999999999983e-06 5.570400025610382060e+26 2.964258313188041782e+00
1.560000000000000099e-06 5.541327231177810301e+26 2.963933684522634948e+00
1.570000000000000003e-06 5.512266929881362343e+26 2.963984529446529237e+00
1.580000000000000119e-06 5.484148039836624066e+26 2.964364053822669209e+00
1.590000000000000023e-06 5.455838038181216923e+26 2.963939524139194148e+00
1.599999999999999928e-06 5.428511676654148846e+26 2.964314920124492048e+00
1.610000000000000044e-06 5.400575908840793927e+26 2.963899799389348555e+00
1.619999999999999948e-06 5.373632095246249421e+26 2.964177599607264568e+00
1.630000000000000064e-06 5.346338673018291995e+26 2.964350391259859663e+00
1.639999999999999968e-06 5.318890930146935519e+26 2.964130803409870563e+00
1.650000000000000084e-06 5.293536835960334282e+26 2.964319484003530292e+00
1.659999999999999988e-06 5.266962365044556411e+26 2.964108521640947291e+00
1.670000000000000104e-06 5.241765924451831111e+26 2.964300236112346276e+00
1.680000000000000009e-06 5.215396611699467380e+26 2.964086248277421731e+00
1.690000000000000125e-06 5.190225100484258164e+26 2.964265556654217537e+00
1.700000000000000029e-06 5.165078025265916688e+26 2.964659835044014091e+00
1.709999999999999933e-06 5.140545171164890854e+26 2.964251459241515896e+00
1.720000000000000049e-06 5.114707538200165517e+26 2.964633006624711076e+00
1.729999999999999953e-06 5.090586647169833904e+26 2.964446609307934466e+00
1.740000000000000069e-06 5.066330219696689921e+26 2.964626904110779559e+00
1.749999999999999974e-06 5.042978632015669146e+26 2.964449282440305478e+00
1.760000000000000090e-06 5.019190684868565730e+26 2.964632594815022060e+00
1.769999999999999994e-06 4.995045828757998480e+26 2.964430929547715809e+00
1.780000000000000110e-06 4.972296066864056790e+26 2.964140915286654465e+00
1.790000000000000014e-06 4.949279886047372027e+26 2.964548763273640475e+00
1.800000000000000130e-06 4.926301032028267226e+26 2.964349007411569037e+00
1.810000000000000035e-06 4.903454927313935332e+26 2.964550406518812853e+00
1.819999999999999939e-06 4.882179249120200669e+26 2.964478372970138498e+00
1.830000000000000055e-06 4.858947180760481987e+26 2.964574746325467025e+00
1.839999999999999959e-06 4.836994766200531891e+26 2.964485254431216799e+00
1.850000000000000075e-06 4.815225555264305021e+26 2.964807909565525534e+00
1.859999999999999979e-06 4.794196594579785324e+26 2.964527342081694439e+00
1.870000000000000095e-06 4.772377317797633253e+26 2.964446286265186359e+00
1.880000000000000000e-06 4.750136433766888892e+26 2.964743589163150173e+00
1.890000000000000116e-06 4.730579415414144577e+26 2.964498723198504049e+00
1.900000000000000020e-06 4.709806072063447643e+26 2.964419499555946302e+00
1.909999999999999924e-06 4.688012793833254733e+26 2.964724249464036898e+00
1.920000000000000252e-06 4.667614266796715377e+26 2.964647469278248959e+00
1.930000000000000156e-06 4.648323920131076232e+26 2.964887646000064159e+00
1.940000000000000060e-06 4.627662533767574642e+26 2.964713216521959183e+00
1.949999999999999965e-06 4.607797734219947524e+26 2.964639531731926514e+00
1.959999999999999869e-06 4.587579442880417128e+26 2.964857835169842470e+00
1.970000000000000197e-06 4.568187608465414167e+26 2.964792545048541950e+00
1.980000000000000101e-06 4.548929852544751703e+26 2.964642330293390859e+00
1.990000000000000005e-06 4.529672116489054467e+26 2.964860043576685644e+00
1.999999999999999909e-06 4.510209448837177593e+26 2.964793419723786183e+00
2.010000000000000237e-06 4.491032386309191785e+26 2.964621266578681080e+00
2.020000000000000142e-06 4.472064805347379319e+26 2.965042223797245136e+00
2.030000000000000046e-06 4.454258719591600767e+26 2.964805271256834462e+00
2.039999999999999950e-06 4.435885436106348751e+26 2.964739414942293205e+00
2.049999999999999854e-06 4.417081238839445758e+26 2.964574094102844448e+00
2.060000000000000182e-06 4.398479051628711152e+26 2.964993146624069098e+00
2.070000000000000086e-06 4.380302910679899816e+26 2.964739792263259677e+00
2.079999999999999991e-06 4.363804935698570596e+26 2.964707476100473915e+00
2.089999999999999895e-06 4.345514627432594614e+26 2.965131182069166815e+00
2.100000000000000223e-06 4.327487858001863098e+26 2.964973291543995693e+00
2.110000000000000127e-06 4.310649925366627506e+26 2.964723808806330130e+00
2.120000000000000031e-06 4.292760206503542391e+26 2.964672840354872108e+00
2.129999999999999935e-06 4.275216760864765052e+26 2.965103324548395314e+00
2.139999999999999840e-06 4.258196260496045752e+26 2.964949298453074533e+00
2.150000000000000167e-06 4.242260307338596952e+26 2.964931603340760891e+00
2.160000000000000072e-06 4.225806815238369745e+26 2.964690267692234649e+00
2.169999999999999976e-06 4.208402090955799519e+26 2.965129651655955989e+00
2.179999999999999880e-06 4.192067566413772847e+26 2.965085019106680431e+00
2.190000000000000208e-06 4.175861990984204728e+26 2.965041401881830296e+00
2.200000000000000112e-06 4.159229493883585393e+26 2.964897494063917893e+00
2.210000000000000016e-06 4.142832935012452661e+26 2.964855184554183953e+00
2.219999999999999921e-06 4.126086495906792793e+26 2.965298954517686436e+00
2.230000000000000248e-06 4.111075673672557932e+26 2.965071213052924204e+00
2.240000000000000153e-06 4.096408340533090219e+26 2.965052236612020220e+00
2.250000000000000057e-06 4.080237844447222846e+26 2.965014725459279799e+00
2.259999999999999961e-06 4.064591430860563098e+26 2.964870645246575176e+00
2.269999999999999866e-06 4.049358864340538982e+26 2.964830961877389370e+00
2.280000000000000193e-06 4.033346167055760261e+26 2.965277128942498397e+00
2.290000000000000098e-06 4.018486089399073781e+26 2.965044764019235224e+00
2.300000000000000002e-06 4.003209569941407945e+26 2.965009512313263151e+00
2.309999999999999906e-06 3.988442755849376129e+26 2.964972141824006702e+00
2.320000000000000234e-06 3.973789978696279687e+26 2.964935629234625836e+00
2.330000000000000138e-06 3.958432256602983695e+26 2.964902819892349495e+00
2.340000000000000042e-06 3.943763154065959995e+26 2.965358115973522057e+00
2.349999999999999947e-06 3.929315307551813178e+26 2.965220774318939156e+00
2.359999999999999851e-06 3.914730082056813518e+26 2.965192010992772076e+00
2.370000000000000179e-06 3.900771085808477270e+26 2.964968523382371490e+00
2.380000000000000083e-06 3.887663860073596045e+26 2.964961853808644410e+00
2.389999999999999987e-06 3.873405937886773679e+26 2.964937983356083162e+00
2.399999999999999891e-06 3.859636508912510233e+26 2.964912991340152182e+00
2.410000000000000219e-06 3.845687197114718012e+26 2.964889455628195947e+00
2.420000000000000123e-06 3.831273099374446860e+26 2.965352892422581821e+00
2.430000000000000028e-06 3.817812947235442652e+26 2.965332409701258332e+00
2.439999999999999932e-06 3.804450165089957091e+26 2.965313103657052807e+00
2.450000000000000260e-06 3.790394843911468174e+26 2.965297421197416128e+00
2.460000000000000164e-06 3.777221857609943145e+26 2.965279912223040881e+00
2.470000000000000068e-06 3.763769200766634267e+26 2.965265758581455469e+00
2.479999999999999972e-06 3.750367523634686260e+26 2.965144358365907173e+00
2.489999999999999877e-06 3.737462280146161886e+26 2.965128109242392895e+00
2.500000000000000205e-06 3.724276630266397288e+26 2.965114751585227637e+00
2.510000000000000109e-06 3.711543248333605785e+26 2.965098734189627994e+00
2.520000000000000013e-06 3.698618547393047327e+26 2.965082588704968991e+00
2.529999999999999917e-06 3.685487103035567683e+26 2.965358800262529293e+00
2.540000000000000245e-06 3.673010141778101870e+26 2.965342936556219833e+00
2.550000000000000149e-06 3.660618495054638418e+26 2.965327187129318531e+00
2.560000000000000054e-06 3.647681204759744465e+26 2.965314224097701512e+00
2.569999999999999958e-06 3.635334337593602770e+26 2.965299117264770246e+00
2.579999999999999862e-06 3.623204098485016342e+26 2.965284561224147186e+00
2.590000000000000190e-06 3.610535207547509130e+26 2.965273295323848313e+00
2.600000000000000094e-06 3.598581644173171638e+26 2.965260448532947457e+00
2.609999999999999998e-06 3.586715708519799306e+26 2.965248740911945013e+00
2.619999999999999903e-06 3.574667982287255432e+26 2.965238190444833943e+00
2.630000000000000230e-06 3.562627508124183093e+26 2.965231911839411705e+00
2.640000000000000135e-06 3.551023914088509866e+26 2.965224512220602904e+00
2.650000000000000039e-06 3.538708210168676534e+26 2.965196917662227261e+00
