# z (um)	 Electron density (m^-3)
0.000000000000000000e+00 1.239597288467299130e+26 3.176674390236745360e+00
1.000000000000000021e-08 1.237544112342025575e+26 3.176654579148622481e+00
2.000000000000000042e-08 1.235411724715857414e+26 3.176655562662371590e+00
3.000000000000000394e-08 1.233352976973482595e+26 3.176715132254567031e+00
4.000000000000000084e-08 1.231234929947555027e+26 3.176716058626487538e+00
4.999999999999999774e-08 1.229124080777005514e+26 3.176716788049871454e+00
6.000000000000000787e-08 1.227106051901001627e+26 3.176696148916629880e+00
7.000000000000000477e-08 1.225092663416905286e+26 3.176589609976494089e+00
8.000000000000000167e-08 1.222985959330024032e+26 3.176754654202863737e+00
8.999999999999999857e-08 1.220903242948033647e+26 3.176754998487195003e+00
9.999999999999999547e-08 1.218912643287608849e+26 3.176733688261424771e+00
1.100000000000000056e-07 1.216926752587281717e+26 3.176626048874195973e+00
1.200000000000000157e-07 1.214864714197154797e+26 3.176626108493553424e+00
1.299999999999999994e-07 1.212792667729237635e+26 3.176790252718350249e+00
1.400000000000000095e-07 1.210744449516475785e+26 3.176790025912408222e+00
1.499999999999999932e-07 1.208869963770077830e+26 3.176659609065314971e+00
1.600000000000000033e-07 1.206835101031899913e+26 3.176659310613810572e+00
1.700000000000000135e-07 1.204891134656183898e+26 3.176637007286239101e+00
1.799999999999999971e-07 1.202768999000338289e+26 3.176822093075714726e+00
1.900000000000000073e-07 1.200836725509545476e+26 3.176712359792734475e+00
1.999999999999999909e-07 1.198912312488350132e+26 3.176689769984429645e+00
2.100000000000000011e-07 1.196910718603907616e+26 3.176688927978570831e+00
2.200000000000000112e-07 1.195081002468335014e+26 3.176556098526498229e+00
2.299999999999999949e-07 1.192992450464418247e+26 3.176740779561848971e+00
2.400000000000000315e-07 1.191093544657309502e+26 3.176717590665475655e+00
2.499999999999999887e-07 1.189117897821946235e+26 3.176716410454805573e+00
2.599999999999999988e-07 1.187230147188992405e+26 3.176604684343645957e+00
2.700000000000000090e-07 1.185250849933602368e+26 3.176766621551074365e+00
2.800000000000000191e-07 1.183294318636729887e+26 3.176765242553463153e+00
2.900000000000000292e-07 1.181426637999758660e+26 3.176741316895227651e+00
2.999999999999999864e-07 1.179563945960310905e+26 3.176628715538412528e+00
3.099999999999999966e-07 1.177708359425768850e+26 3.176604618513523270e+00
3.200000000000000067e-07 1.175678479332993420e+26 3.176788226230503387e+00
3.300000000000000168e-07 1.173915990357644750e+26 3.176652037786485749e+00
3.400000000000000270e-07 1.171996714461519669e+26 3.176650290971508639e+00
3.499999999999999842e-07 1.170083646689622724e+26 3.176648340839462570e+00
3.599999999999999943e-07 1.168160723579791605e+26 3.176808800412090239e+00
3.700000000000000044e-07 1.166340327085136655e+26 3.176694422887545333e+00
3.800000000000000146e-07 1.164526788251817615e+26 3.176669530701158095e+00
3.900000000000000247e-07 1.162637936478703467e+26 3.176667275224296816e+00
3.999999999999999819e-07 1.160916293135649049e+26 3.176529085297890020e+00
4.099999999999999920e-07 1.158942468803761187e+26 3.176711970549157549e+00
4.200000000000000022e-07 1.157152535149124084e+26 3.176686549269065019e+00
4.300000000000000123e-07 1.155287490431613838e+26 3.176684000812123987e+00
4.400000000000000224e-07 1.153508059597440845e+26 3.176568000988914342e+00
4.500000000000000326e-07 1.151638960407534417e+26 3.176727366080069004e+00
4.599999999999999898e-07 1.149791445453007550e+26 3.176724661473728339e+00
4.699999999999999999e-07 1.148109368807614525e+26 3.176584618877490662e+00
4.800000000000000630e-07 1.146273221278586574e+26 3.176581905815178519e+00
4.899999999999999672e-07 1.144427316540381737e+26 3.176740650525482490e+00
4.999999999999999774e-07 1.142681960561112957e+26 3.176623005741564754e+00
5.099999999999999875e-07 1.140942587763784570e+26 3.176596736207833338e+00
5.199999999999999976e-07 1.139129194358554670e+26 3.176593726888508051e+00
5.300000000000000078e-07 1.137306286797079027e+26 3.176751855249889900e+00
5.400000000000000179e-07 1.135583037349980693e+26 3.176633588179529344e+00
5.500000000000000281e-07 1.133786448336394431e+26 3.176630420900202978e+00
5.600000000000000382e-07 1.132074491106044631e+26 3.176603484719682680e+00
5.700000000000000483e-07 1.130273309142051937e+26 3.176669136669158622e+00
5.800000000000000585e-07 1.128572030150941538e+26 3.176642157089519802e+00
5.899999999999999627e-07 1.126797390154916544e+26 3.176638698547758377e+00
5.999999999999999728e-07 1.125185069985231694e+26 3.176495085630834936e+00
6.099999999999999830e-07 1.123327569901758244e+26 3.176676286698554286e+00
6.199999999999999931e-07 1.121647489612280340e+26 3.176648818523803541e+00
6.300000000000000033e-07 1.119972482110001340e+26 3.176528306949157443e+00
6.400000000000000134e-07 1.118302939399790740e+26 3.176500755500383022e+00
6.500000000000000235e-07 1.116467482780159403e+26 3.176681616598481916e+00
6.600000000000000337e-07 1.114886047417939373e+26 3.176536306800894049e+00
6.700000000000000438e-07 1.113154065326049219e+26 3.176532687481176342e+00
6.800000000000000539e-07 1.111504988454296223e+26 3.176504667945982519e+00
6.900000000000000641e-07 1.109768725635965087e+26 3.176567258449756626e+00
6.999999999999999683e-07 1.108052436279828702e+26 3.176563517887903476e+00
7.099999999999999785e-07 1.106418616481195002e+26 3.176535343236009723e+00
7.199999999999999886e-07 1.104789927825797483e+26 3.176412806357837404e+00
7.299999999999999987e-07 1.103074209754457088e+26 3.176568945192186355e+00
7.400000000000000089e-07 1.101378390033901340e+26 3.176564930323219738e+00
7.500000000000000190e-07 1.099764684827712964e+26 3.176536278921736844e+00
7.600000000000000291e-07 1.098155835758112351e+26 3.176413322725897714e+00
7.700000000000000393e-07 1.096460426963859510e+26 3.176568929243638095e+00
7.800000000000000494e-07 1.094861495316422591e+26 3.176445154869184329e+00
7.900000000000000595e-07 1.093266956490776778e+26 3.176416435443949915e+00
7.999999999999999638e-07 1.091510344161747714e+26 3.176596379410825843e+00
8.099999999999999739e-07 1.090002138723961975e+26 3.176447287481760196e+00
8.199999999999999841e-07 1.088346030594148490e+26 3.176443132304003214e+00
8.299999999999999942e-07 1.086770749056537775e+26 3.176413961433485866e+00
8.400000000000000043e-07 1.085110593393947973e+26 3.176473138327946533e+00
8.500000000000000145e-07 1.083544763413380204e+26 3.176443989411330993e+00
8.600000000000000246e-07 1.081908329495915544e+26 3.176439573232487490e+00
8.700000000000000347e-07 1.080427972752363882e+26 3.176289098023846957e+00
8.800000000000000449e-07 1.078711205700229176e+26 3.176468790655878838e+00
8.900000000000000550e-07 1.077164128513853956e+26 3.176439202086305702e+00
9.000000000000000652e-07 1.075622340597668578e+26 3.176313218507052838e+00
9.099999999999999694e-07 1.073995228530713711e+26 3.176467537601867175e+00
9.199999999999999795e-07 1.072387062797505177e+26 3.176462977874863203e+00
9.299999999999999897e-07 1.070933857924726496e+26 3.176311212921938854e+00
9.399999999999999998e-07 1.069334869182138392e+26 3.176306696433325971e+00
9.500000000000000100e-07 1.067726494957629409e+26 3.176460540027496116e+00
9.600000000000001260e-07 1.066212108657915978e+26 3.176333563802583360e+00
9.700000000000000302e-07 1.064626940492840444e+26 3.176328932852547027e+00
9.799999999999999345e-07 1.063032640271357933e+26 3.176482547217131192e+00
9.900000000000000505e-07 1.061531644536609116e+26 3.176355061083802056e+00
9.999999999999999547e-07 1.060034065603117021e+26 3.176324898422880683e+00
1.010000000000000071e-06 1.058466975678402226e+26 3.176319991779066321e+00
1.019999999999999975e-06 1.056965275184251532e+26 3.176350229767615385e+00
1.030000000000000091e-06 1.055407082541222732e+26 3.176345456924046129e+00
1.039999999999999995e-06 1.054001616098874040e+26 3.176191191194236207e+00
1.050000000000000111e-06 1.052364986182540315e+26 3.176370118166067513e+00
1.060000000000000016e-06 1.050893508005897196e+26 3.176339583670772182e+00
1.069999999999999920e-06 1.049427446863322130e+26 3.176210531583527619e+00
1.080000000000000036e-06 1.047964452041855988e+26 3.176179981010345710e+00
1.089999999999999940e-06 1.046346186631401809e+26 3.176358636528931800e+00
1.100000000000000056e-06 1.044965986040285936e+26 3.176203329175037560e+00
1.109999999999999960e-06 1.043442896388297397e+26 3.176198503352494651e+00
1.120000000000000076e-06 1.041910649554500566e+26 3.176351067588230492e+00
1.129999999999999981e-06 1.040470181116156213e+26 3.176221241991467270e+00
1.140000000000000097e-06 1.039032561804281769e+26 3.176190337493478122e+00
1.150000000000000001e-06 1.037514559449914932e+26 3.176243237858832558e+00
1.160000000000000117e-06 1.036085178162203027e+26 3.176212402577457627e+00
1.170000000000000021e-06 1.034587686011353126e+26 3.176207450477154470e+00
1.179999999999999925e-06 1.033240052120044485e+26 3.176050439632037481e+00
1.190000000000000041e-06 1.031665382323447431e+26 3.176228932778855985e+00
1.199999999999999946e-06 1.030252495049780296e+26 3.176197670243827265e+00
1.210000000000000062e-06 1.028844826588342562e+26 3.176066477890360229e+00
1.219999999999999966e-06 1.027354619557669547e+26 3.176218504903368434e+00
1.230000000000000082e-06 1.025954987083337966e+26 3.176086707363681594e+00
1.239999999999999986e-06 1.024557639799332755e+26 3.176055508924958026e+00
1.250000000000000102e-06 1.023008215309694085e+26 3.176233705567587329e+00
1.260000000000000007e-06 1.021691745305062778e+26 3.176075137053523179e+00
1.270000000000000123e-06 1.020306087943710042e+26 3.176043698014760608e+00
1.280000000000000027e-06 1.018926055015761128e+26 3.175911017760090438e+00
1.289999999999999931e-06 1.017463959631011706e+26 3.176062756591114145e+00
1.300000000000000047e-06 1.016019060230993195e+26 3.176057868580896670e+00
1.309999999999999951e-06 1.014721725756634713e+26 3.175898166272459466e+00
1.320000000000000067e-06 1.013200883594100259e+26 3.176076451639604503e+00
1.329999999999999972e-06 1.011838477186989989e+26 3.176044694656899647e+00
1.340000000000000088e-06 1.010481660073921678e+26 3.175911465151123547e+00
1.349999999999999992e-06 1.009043411381883780e+26 3.176062742837275188e+00
1.360000000000000108e-06 1.007694281499007474e+26 3.175928965324897657e+00
1.370000000000000012e-06 1.006346940210438450e+26 3.175897308549865183e+00
1.380000000000000128e-06 1.004850257819650890e+26 3.176075334036906561e+00
1.390000000000000032e-06 1.003582494659871753e+26 3.175914301523035554e+00
1.399999999999999937e-06 1.002176433522577298e+26 3.175909522057223544e+00
1.410000000000000053e-06 1.000833302179275861e+26 3.175930701060452055e+00
1.419999999999999957e-06 9.994349858886358728e+25 3.175926085334506155e+00
1.430000000000000073e-06 9.981099726280262972e+25 3.175894106184898202e+00
1.439999999999999977e-06 9.967083760591823131e+25 3.175942067612819386e+00
1.450000000000000093e-06 9.953906148350896753e+25 3.175910185645504757e+00
1.459999999999999997e-06 9.940785961723787243e+25 3.175774854700051275e+00
1.470000000000000113e-06 9.926860642631283355e+25 3.175925702223919345e+00
1.480000000000000018e-06 9.913099091996295245e+25 3.175920951766376010e+00
1.490000000000000134e-06 9.900777752766694567e+25 3.175758103530586851e+00
1.500000000000000038e-06 9.887088229440835623e+25 3.175753424975936934e+00
1.509999999999999942e-06 9.874021321045778940e+25 3.175772686272097634e+00
1.520000000000000058e-06 9.860403888053236055e+25 3.175768181936373225e+00
1.529999999999999963e-06 9.847510495575419455e+25 3.175736010286492217e+00
1.540000000000000079e-06 9.834551200904482559e+25 3.175754889016510596e+00
1.549999999999999983e-06 9.821041531444388179e+25 3.175750368546067293e+00
1.560000000000000099e-06 9.808960233501184001e+25 3.175586082531505205e+00
1.570000000000000003e-06 9.794713404325654768e+25 3.175764233018721239e+00
1.580000000000000119e-06 9.781993533092794485e+25 3.175731968012708517e+00
1.590000000000000023e-06 9.769331526827726108e+25 3.175595167663036733e+00
1.599999999999999928e-06 9.755875202067967926e+25 3.175745465033402049e+00
1.610000000000000044e-06 9.743282215274208875e+25 3.175608211003973835e+00
1.619999999999999948e-06 9.730697824148709776e+25 3.175576090364013115e+00
1.630000000000000064e-06 9.716668689551987578e+25 3.175754017467638413e+00
1.639999999999999968e-06 9.704854474176133278e+25 3.175588778802248768e+00
1.650000000000000084e-06 9.691696557760478153e+25 3.175584381458095518e+00
1.659999999999999988e-06 9.679149968962299355e+25 3.175600996788244590e+00
1.670000000000000104e-06 9.666058132052928086e+25 3.175596771162981558e+00
1.680000000000000009e-06 9.654373988934125233e+25 3.175430506468225111e+00
1.690000000000000125e-06 9.640554946997061355e+25 3.175608702951160378e+00
1.700000000000000029e-06 9.628236802120918316e+25 3.175576389486232554e+00
1.709999999999999933e-06 9.615856653348488062e+25 3.175592078307758026e+00
1.720000000000000049e-06 9.602932962356832848e+25 3.175587987681895097e+00
1.729999999999999953e-06 9.591408251148358707e+25 3.175420996896432868e+00
1.740000000000000069e-06 9.577762294969560868e+25 3.175599152223534727e+00
1.749999999999999974e-06 9.565606156909007256e+25 3.175566740687601808e+00
1.760000000000000090e-06 9.553510792115040646e+25 3.175427859498839211e+00
1.769999999999999994e-06 9.540632988209234334e+25 3.175577612040785702e+00
1.780000000000000110e-06 9.528600074000390943e+25 3.175438333578874950e+00
1.790000000000000014e-06 9.516570295703768306e+25 3.175406086063092381e+00
1.800000000000000130e-06 9.503818847422022096e+25 3.175448424069351905e+00
1.810000000000000035e-06 9.491851640709576574e+25 3.175416318100137136e+00
1.819999999999999939e-06 9.479254660705720220e+25 3.175412347203333763e+00
1.830000000000000055e-06 9.467260768512902808e+25 3.175426183562776838e+00
1.839999999999999959e-06 9.455386687900737427e+25 3.175393881824053022e+00
1.850000000000000075e-06 9.443572803670867994e+25 3.175253809495460988e+00
1.859999999999999979e-06 9.430984480951891187e+25 3.175403534067436251e+00
1.870000000000000095e-06 9.419234539961005935e+25 3.175263099825397450e+00
1.880000000000000000e-06 9.407482638586067978e+25 3.175230984643870435e+00
1.890000000000000116e-06 9.394333960883902808e+25 3.175409218462598826e+00
1.900000000000000020e-06 9.383328212435973317e+25 3.175240065509314924e+00
1.909999999999999924e-06 9.371013668451963903e+25 3.175236517042545170e+00
1.920000000000000252e-06 9.359297252918100554e+25 3.175248791032430962e+00
1.930000000000000156e-06 9.347044031574561205e+25 3.175245418974868006e+00
1.940000000000000060e-06 9.335388703283880262e+25 3.175257165605863907e+00
1.949999999999999965e-06 9.323846506506913460e+25 3.175225103427276263e+00
1.959999999999999869e-06 9.312366009108649386e+25 3.175083572779045848e+00
1.970000000000000197e-06 9.300118743452680361e+25 3.175233268834228184e+00
1.980000000000000101e-06 9.288019472710508101e+25 3.175230017836663698e+00
1.990000000000000005e-06 9.277274414746974784e+25 3.175059493972857361e+00
1.999999999999999909e-06 9.264471981076107511e+25 3.175238021816057632e+00
2.010000000000000237e-06 9.253783973763744264e+25 3.175067120692151246e+00
2.020000000000000142e-06 9.241801526894919348e+25 3.175064116217355625e+00
2.030000000000000046e-06 9.230411808275537238e+25 3.175074442606724112e+00
2.039999999999999950e-06 9.218488136306967907e+25 3.175071626298934913e+00
2.049999999999999854e-06 9.207912157469995453e+25 3.174899966018049025e+00
2.060000000000000182e-06 9.195932771106325775e+25 3.175049671409066576e+00
2.070000000000000086e-06 9.184097121531286684e+25 3.175046820841008532e+00
2.079999999999999991e-06 9.172851082229009121e+25 3.175056602844908316e+00
2.089999999999999895e-06 9.161073299502672426e+25 3.175053947318983383e+00
2.100000000000000223e-06 9.150636596384749255e+25 3.174881896511648982e+00
2.110000000000000127e-06 9.138166150767305531e+25 3.175060822787078685e+00
2.120000000000000031e-06 9.127782317539123763e+25 3.174888448196785617e+00
2.129999999999999935e-06 9.116118324291983741e+25 3.174886074495701926e+00
2.139999999999999840e-06 9.105041452993715797e+25 3.174894760356095524e+00
2.150000000000000167e-06 9.094067910636187136e+25 3.174863127410375352e+00
2.160000000000000072e-06 9.081744633061015972e+25 3.175042078924486422e+00
2.169999999999999976e-06 9.071494510132151510e+25 3.174869348948072822e+00
2.179999999999999880e-06 9.059971637067444373e+25 3.174867108388920389e+00
2.190000000000000208e-06 9.049032618592440170e+25 3.174875317877367209e+00
2.200000000000000112e-06 9.037565171710310549e+25 3.174873255871831113e+00
2.210000000000000016e-06 9.027422250622650056e+25 3.174699842438975406e+00
2.219999999999999921e-06 9.015270430575427604e+25 3.174879153410089305e+00
2.230000000000000248e-06 9.005178008533350987e+25 3.174705430531512107e+00
2.240000000000000153e-06 8.993709949508911560e+25 3.174855103213451546e+00
2.250000000000000057e-06 8.983042638646891696e+25 3.174710787323689498e+00
2.259999999999999961e-06 8.972364038304027086e+25 3.174679416919619079e+00
2.269999999999999866e-06 8.960353506225144849e+25 3.174858729056395212e+00
2.280000000000000193e-06 8.950389196910437331e+25 3.174684707304750386e+00
2.290000000000000098e-06 8.939166190754866919e+25 3.174683004932038255e+00
2.300000000000000002e-06 8.928521080590839730e+25 3.174689794817343813e+00
2.309999999999999906e-06 8.917972810020232724e+25 3.174658373002471112e+00
2.320000000000000234e-06 8.906760825583130843e+25 3.174694701061266056e+00
2.330000000000000138e-06 8.896264049307237997e+25 3.174663446299094804e+00
2.340000000000000042e-06 8.885831078911509641e+25 3.174518515739455982e+00
2.349999999999999947e-06 8.874658548116381350e+25 3.174668359429706488e+00
2.359999999999999851e-06 8.864276847275140615e+25 3.174523210508503279e+00
2.370000000000000179e-06 8.853881316453220933e+25 3.174492184182279964e+00
2.380000000000000083e-06 8.842826190316343027e+25 3.174527755880751645e+00
2.389999999999999987e-06 8.832480794664244691e+25 3.174496897061395373e+00
2.399999999999999891e-06 8.822093180077247848e+25 3.174502007606581078e+00
2.410000000000000219e-06 8.811182879033871502e+25 3.174501456202864613e+00
2.420000000000000123e-06 8.800912600419776120e+25 3.174470390833870059e+00
2.430000000000000028e-06 8.789988674125974765e+25 3.174505852082220692e+00
2.439999999999999932e-06 8.779767757485478896e+25 3.174474937136722463e+00
2.450000000000000260e-06 8.768893845733722580e+25 3.174510078268752977e+00
2.460000000000000164e-06 8.758721864058078408e+25 3.174479312849080248e+00
2.470000000000000068e-06 8.749223826561768604e+25 3.174303110829813424e+00
2.479999999999999972e-06 8.737776088667198292e+25 3.174483527348602507e+00
2.489999999999999877e-06 8.728325670723804739e+25 3.174307093293942117e+00
2.500000000000000205e-06 8.717642204337744869e+25 3.174306877517571568e+00
2.510000000000000109e-06 8.707526562337286669e+25 3.174310938478794863e+00
2.520000000000000013e-06 8.696892408829905555e+25 3.174310911090251874e+00
2.529999999999999917e-06 8.686825569656192499e+25 3.174314663195660913e+00
2.540000000000000245e-06 8.676846653630903294e+25 3.174284319074973659e+00
2.550000000000000149e-06 8.666931581458829983e+25 3.174137707287603138e+00
2.560000000000000054e-06 8.656290522269607478e+25 3.174288115990854031e+00
2.569999999999999958e-06 8.646422930582958735e+25 3.174141337317091249e+00
2.579999999999999862e-06 8.635830817951003587e+25 3.174291827516927178e+00
2.590000000000000190e-06 8.626010244129770679e+25 3.174144887036569607e+00
2.600000000000000094e-06 8.616170033872119218e+25 3.174114952652310695e+00
2.609999999999999998e-06 8.606292397422282529e+25 3.174117672013635705e+00
2.619999999999999903e-06 8.595898806205666139e+25 3.174118599163685328e+00
2.630000000000000230e-06 8.585427139260499927e+25 3.174268992333920902e+00
2.640000000000000135e-06 8.575721982976164565e+25 3.174122158547410866e+00
2.650000000000000039e-06 8.565997119414675337e+25 3.174092180449633371e+00
