# z (um)	 Electron density (m^-3)
0.000000000000000000e+00 8.427638644668148113e+26 4.549711199306705645e+00
1.000000000000000021e-08 8.320466514029977266e+26 4.548446957325101181e+00
2.000000000000000042e-08 8.215933489140777309e+26 4.547228575678043505e+00
3.000000000000000394e-08 8.112205815796214906e+26 4.545960335923723505e+00
4.000000000000000084e-08 8.012747371392204289e+26 4.544869183394270706e+00
4.999999999999999774e-08 7.915693044704272909e+26 4.543829145258130531e+00
6.000000000000000787e-08 7.819212915618003737e+26 4.542729243482210855e+00
7.000000000000000477e-08 7.726702232718182883e+26 4.541799384712460252e+00
8.000000000000000167e-08 7.636324842241428458e+26 4.540934114286020673e+00
8.999999999999999857e-08 7.546381204327841513e+26 4.540006342625069635e+00
9.999999999999999547e-08 7.460152836275911643e+26 4.539244512695132627e+00
1.100000000000000056e-07 7.374220985925567110e+26 4.538419552909753740e+00
1.200000000000000157e-07 7.289839843275258605e+26 4.536977577149202467e+00
1.299999999999999994e-07 7.209301889076802872e+26 4.536371372591665896e+00
1.400000000000000095e-07 7.128366977277538721e+26 4.535041600111245685e+00
1.499999999999999932e-07 7.051325371988535099e+26 4.534539947734439025e+00
1.600000000000000033e-07 6.973843697398349965e+26 4.533302599496319196e+00
1.700000000000000135e-07 6.898569614817193139e+26 4.532788770168544978e+00
1.799999999999999971e-07 6.825815847161908517e+26 4.531773265798122452e+00
1.900000000000000073e-07 6.753676745630718945e+26 4.531345657829181306e+00
1.999999999999999909e-07 6.682504252679272909e+26 4.530289162485095389e+00
2.100000000000000011e-07 6.612765884896730989e+26 4.529293894950927601e+00
2.200000000000000112e-07 6.546417703015322626e+26 4.529131968119492591e+00
2.299999999999999949e-07 6.479667666784244835e+26 4.528215057065168025e+00
2.400000000000000315e-07 6.414072884032910322e+26 4.527341572778777135e+00
2.499999999999999887e-07 6.349777716610896448e+26 4.526514889474666070e+00
2.599999999999999988e-07 6.286746273988762668e+26 4.525726915133296835e+00
2.700000000000000090e-07 6.225437365819455903e+26 4.525662939082335079e+00
2.800000000000000191e-07 6.164832234906869687e+26 4.524944096828987128e+00
2.900000000000000292e-07 6.105376141037199680e+26 4.524284816837397472e+00
2.999999999999999864e-07 6.047076759780161425e+26 4.523643579475932874e+00
3.099999999999999966e-07 5.989847216736041841e+26 4.523059814335510964e+00
3.200000000000000067e-07 5.933224515640309629e+26 4.521823960636432993e+00
3.300000000000000168e-07 5.878104925167747589e+26 4.521321379471363144e+00
3.400000000000000270e-07 5.824198472748562679e+26 4.520830657659118401e+00
3.499999999999999842e-07 5.771084587928637650e+26 4.520391488490237641e+00
3.599999999999999943e-07 5.718948878459804705e+26 4.519972936672452590e+00
3.700000000000000044e-07 5.667280063553641811e+26 4.518920288481576897e+00
3.800000000000000146e-07 5.616962544274890078e+26 4.518606367304810689e+00
3.900000000000000247e-07 5.566365223572441008e+26 4.518153853215647331e+00
3.999999999999999819e-07 5.517369764460057431e+26 4.517220079429860036e+00
4.099999999999999920e-07 5.469702775783945740e+26 4.516963845239050812e+00
4.200000000000000022e-07 5.422421229665612712e+26 4.516045942363906995e+00
4.300000000000000123e-07 5.375171453967707833e+26 4.515783040249502278e+00
4.400000000000000224e-07 5.329495208064847659e+26 4.514931616017120675e+00
4.500000000000000326e-07 5.285171126756114815e+26 4.514801868265429619e+00
4.599999999999999898e-07 5.240980124063385382e+26 4.514050124404925590e+00
4.699999999999999999e-07 5.196839963194017987e+26 4.513864857463331326e+00
4.800000000000000630e-07 5.154116117023433583e+26 4.513149155610601149e+00
4.899999999999999672e-07 5.112105710203694349e+26 4.512453173021969022e+00
4.999999999999999774e-07 5.070054088061844054e+26 4.512400230008429602e+00
5.099999999999999875e-07 5.029392941826907137e+26 4.511757088696695561e+00
5.199999999999999976e-07 4.988302300462084048e+26 4.511029194857281155e+00
5.300000000000000078e-07 4.948932762260732370e+26 4.510445757904866682e+00
5.400000000000000179e-07 4.909528422680635522e+26 4.510447044881517265e+00
5.500000000000000281e-07 4.871392436246541120e+26 4.509920456075869666e+00
5.600000000000000382e-07 4.834002449944592095e+26 4.509418393962596028e+00
5.700000000000000483e-07 4.795997925068632725e+26 4.508827553247502173e+00
5.800000000000000585e-07 4.759607313698520225e+26 4.508376155349031578e+00
5.899999999999999627e-07 4.722743344790692528e+26 4.507835665574789097e+00
5.999999999999999728e-07 4.687467184851183920e+26 4.507421662955950481e+00
6.099999999999999830e-07 4.651697204751265644e+26 4.506932152740131592e+00
6.199999999999999931e-07 4.616463488677367660e+26 4.506470013559636278e+00
6.300000000000000033e-07 4.582756376029834823e+26 4.506129496856305039e+00
6.400000000000000134e-07 4.548545028570210280e+26 4.505714432765951294e+00
6.500000000000000235e-07 4.515815012351996441e+26 4.505439891346115111e+00
6.600000000000000337e-07 4.482630801114146567e+26 4.505002710802120447e+00
6.700000000000000438e-07 4.450033360080955745e+26 4.504658996460891629e+00
6.800000000000000539e-07 4.418728488040720152e+26 4.504435016264502600e+00
6.900000000000000641e-07 4.386907902347943427e+26 4.504139623479725962e+00
6.999999999999999683e-07 4.356490851348131112e+26 4.503958761572385505e+00
7.099999999999999785e-07 4.325237752770049927e+26 4.502952084159365320e+00
7.199999999999999886e-07 4.294748317129028552e+26 4.502702479177326467e+00
7.299999999999999987e-07 4.265608909723587737e+26 4.502588122673572890e+00
7.400000000000000089e-07 4.235943521841720041e+26 4.502403294565011649e+00
7.500000000000000190e-07 4.206384741437456109e+26 4.501458599404419836e+00
7.600000000000000291e-07 4.177538530679997612e+26 4.501299885315578564e+00
7.700000000000000393e-07 4.149969232800259705e+26 4.501288816325908826e+00
7.800000000000000494e-07 4.122059975184332819e+26 4.501105399542336905e+00
7.900000000000000595e-07 4.094027911267093348e+26 4.500301546815549614e+00
7.999999999999999638e-07 4.067572600802625679e+26 4.500331560607659931e+00
8.099999999999999739e-07 4.040622716300538516e+26 4.500207733550809941e+00
8.199999999999999841e-07 4.013677213848802065e+26 4.499461262176049914e+00
8.299999999999999942e-07 3.987428809366000008e+26 4.499376960360430111e+00
8.400000000000000043e-07 3.961166513070255972e+26 4.498689970084175371e+00
8.500000000000000145e-07 3.936445844662247900e+26 4.498746022751220153e+00
8.600000000000000246e-07 3.911174638966236460e+26 4.498781027959488199e+00
8.700000000000000347e-07 3.885939768419155058e+26 4.498061265945156428e+00
8.800000000000000449e-07 3.861306707555462174e+26 4.498130620992420781e+00
8.900000000000000550e-07 3.836846427967650332e+26 4.497444757293600048e+00
9.000000000000000652e-07 3.812835241455209809e+26 4.497550217615644108e+00
9.099999999999999694e-07 3.789662493845905977e+26 4.497003022823125917e+00
9.199999999999999795e-07 3.766244007315149443e+26 4.497142086834142738e+00
9.299999999999999897e-07 3.742838722488297528e+26 4.496520738934078665e+00
9.399999999999999998e-07 3.719997370058731917e+26 4.496692968710823912e+00
9.500000000000000100e-07 3.697176597012578067e+26 4.496080333981905319e+00
9.600000000000001260e-07 3.674621579674546496e+26 4.495510761745711292e+00
9.700000000000000302e-07 3.652606833762255792e+26 4.495726572491112627e+00
9.799999999999999345e-07 3.630592152999296644e+26 4.495188071953016617e+00
9.900000000000000505e-07 3.609269038740908829e+26 4.495367261086419042e+00
9.999999999999999547e-07 3.587751097810929127e+26 4.494928231169430966e+00
1.010000000000000071e-06 3.566509755031369088e+26 4.494433825253708825e+00
1.019999999999999975e-06 3.545808994328524655e+26 4.494658238447717835e+00
1.030000000000000091e-06 3.525066397522279672e+26 4.494193563885644949e+00
1.039999999999999995e-06 3.504550656939575958e+26 4.493788358014415785e+00
1.050000000000000111e-06 3.484569074603461505e+26 4.494056322192102826e+00
1.060000000000000016e-06 3.464538069322172934e+26 4.493634190380570104e+00
1.069999999999999920e-06 3.444736845131805771e+26 4.493225629114627750e+00
1.080000000000000036e-06 3.425136931866570267e+26 4.492899332947895452e+00
1.089999999999999940e-06 3.406189134206023109e+26 4.493226375745093648e+00
1.100000000000000056e-06 3.387063213186020337e+26 4.492831495150661603e+00
1.109999999999999960e-06 3.368141287199809633e+26 4.492476262813578813e+00
1.120000000000000076e-06 3.349431096322340750e+26 4.492129742520407198e+00
1.129999999999999981e-06 3.330931342364550354e+26 4.491800076729081326e+00
1.140000000000000097e-06 3.312877194160240405e+26 4.492266964773279803e+00
1.150000000000000001e-06 3.294789953260893911e+26 4.491934726755052232e+00
1.160000000000000117e-06 3.276890305176682058e+26 4.491642067088672086e+00
1.170000000000000021e-06 3.259189109403805866e+26 4.491357421413617601e+00
1.179999999999999925e-06 3.241677074549998534e+26 4.491088480599168875e+00
1.190000000000000041e-06 3.224368687491710457e+26 4.490803285417972468e+00
1.199999999999999946e-06 3.207360498094840469e+26 4.490557600009987382e+00
1.210000000000000062e-06 3.189981265670723134e+26 4.490933783495310472e+00
1.219999999999999966e-06 3.173215001402049148e+26 4.490710994159827329e+00
1.230000000000000082e-06 3.156638443163976456e+26 4.490470967990088269e+00
1.239999999999999986e-06 3.140223565277179700e+26 4.490270746839454929e+00
1.250000000000000102e-06 3.123985605449512466e+26 4.490077534987945818e+00
1.260000000000000007e-06 3.107928098581062663e+26 4.489870263881551971e+00
1.270000000000000123e-06 3.092027974239554782e+26 4.489702912327892648e+00
1.280000000000000027e-06 3.075633315409810492e+26 4.489446922502296822e+00
1.289999999999999931e-06 3.060074652895612380e+26 4.489271591950575235e+00
1.300000000000000047e-06 3.044791343941516039e+26 4.489136486307693019e+00
1.309999999999999951e-06 3.029539696495700881e+26 4.489011726354744880e+00
1.320000000000000067e-06 3.014456836481612719e+26 4.488867008645071266e+00
1.329999999999999972e-06 2.999516587141140190e+26 4.488762252570966282e+00
1.340000000000000088e-06 2.984087556027508360e+26 4.488568644937721785e+00
1.349999999999999992e-06 2.969460266597519114e+26 4.488453511985924571e+00
1.360000000000000108e-06 2.954970114431151349e+26 4.488377631368263287e+00
1.370000000000000012e-06 2.940625824545451792e+26 4.488310885115360804e+00
1.380000000000000128e-06 2.925572629967488730e+26 4.487411176506721944e+00
1.390000000000000032e-06 2.911519274370998205e+26 4.487360540382903551e+00
1.399999999999999937e-06 2.897738629342740928e+26 4.487287104092974488e+00
1.410000000000000053e-06 2.883992257033103384e+26 4.487166853116305809e+00
1.419999999999999957e-06 2.869763493498541296e+26 4.487033575781517847e+00
1.430000000000000073e-06 2.856295379792340134e+26 4.486970493551701189e+00
1.439999999999999977e-06 2.842890109160447662e+26 4.486976522478342666e+00
1.450000000000000093e-06 2.829623647479010551e+26 4.486960613519021202e+00
1.459999999999999997e-06 2.815644829419972870e+26 4.486173346352938296e+00
1.470000000000000113e-06 2.802656497647521576e+26 4.486091000128610951e+00
1.480000000000000018e-06 2.789760069771736955e+26 4.486133034380738849e+00
1.490000000000000134e-06 2.776985706099667761e+26 4.486183939558923583e+00
1.500000000000000038e-06 2.763870276072129424e+26 4.486118593429454293e+00
1.509999999999999942e-06 2.751337778585822776e+26 4.486186760062889078e+00
1.520000000000000058e-06 2.738731998733159210e+26 4.485432515289859090e+00
1.529999999999999963e-06 2.725851735875434992e+26 4.485420327560289522e+00
1.540000000000000079e-06 2.713679567794394091e+26 4.485482101588592840e+00
1.549999999999999983e-06 2.701610727289327446e+26 4.485584333972054694e+00
1.560000000000000099e-06 2.689683737269474675e+26 4.485581170325835032e+00
1.570000000000000003e-06 2.677049040958540741e+26 4.484887506303160798e+00
1.580000000000000119e-06 2.665323153506990481e+26 4.484982279630893132e+00
1.590000000000000023e-06 2.653716205093689364e+26 4.485030780159414476e+00
1.599999999999999928e-06 2.641757721505160380e+26 4.485044712830693392e+00
1.610000000000000044e-06 2.630129225358118430e+26 4.484484831602101984e+00
1.619999999999999948e-06 2.618827185990943468e+26 4.484611489417605235e+00
1.630000000000000064e-06 2.607083777538544262e+26 4.484593393764772173e+00
1.639999999999999968e-06 2.595775890790634210e+26 4.484023971895790162e+00
1.650000000000000084e-06 2.584228681069941087e+26 4.484075971416263684e+00
1.659999999999999988e-06 2.573342557787246658e+26 4.484177618946032950e+00
1.670000000000000104e-06 2.562541307059184244e+26 4.484342258953509130e+00
1.680000000000000009e-06 2.551077222249089281e+26 4.483737712850921930e+00
1.690000000000000125e-06 2.540603398749065682e+26 4.483828378473718956e+00
1.700000000000000029e-06 2.530077556258116794e+26 4.484048135818897940e+00
1.709999999999999933e-06 2.518933511622255149e+26 4.483341962512895407e+00
1.720000000000000049e-06 2.508592309612674125e+26 4.483576007612683156e+00
1.729999999999999953e-06 2.497616972354067489e+26 4.482969546712099351e+00
1.740000000000000069e-06 2.487484389980572725e+26 4.483097540425378114e+00
1.749999999999999974e-06 2.477409724344778032e+26 4.483352633625421468e+00
1.760000000000000090e-06 2.466707134513410597e+26 4.482766165519622703e+00
1.769999999999999994e-06 2.456825588427823756e+26 4.482948176631186499e+00
1.780000000000000110e-06 2.446498686870972441e+26 4.483092065198701626e+00
1.790000000000000014e-06 2.436710076073233740e+26 4.482532709892747214e+00
1.800000000000000130e-06 2.427059451101647034e+26 4.482825927008923905e+00
1.810000000000000035e-06 2.416791569975997159e+26 4.482272247677205002e+00
1.819999999999999939e-06 2.407333146398719901e+26 4.482448823346742550e+00
1.830000000000000055e-06 2.397224016615914005e+26 4.481946407628180751e+00
1.839999999999999959e-06 2.387925171587458160e+26 4.482135386001138144e+00
1.850000000000000075e-06 2.378675065088104481e+26 4.482461575709877799e+00
1.859999999999999979e-06 2.368837226932502014e+26 4.481847179465881403e+00
1.870000000000000095e-06 2.359750068680231142e+26 4.482151822268781949e+00
1.880000000000000000e-06 2.350172983628720655e+26 4.481584440948114256e+00
1.890000000000000116e-06 2.341236533482299994e+26 4.481897519250328976e+00
1.900000000000000020e-06 2.331710961963185484e+26 4.481310752133341957e+00
1.909999999999999924e-06 2.322913063019545660e+26 4.481670655597431718e+00
1.920000000000000252e-06 2.313538200447088554e+26 4.481095394208198357e+00
1.930000000000000156e-06 2.304892058191797225e+26 4.481432610605407874e+00
1.940000000000000060e-06 2.295655852909359355e+26 4.480903339870554447e+00
1.949999999999999965e-06 2.287149523138958947e+26 4.481252327805647973e+00
1.959999999999999869e-06 2.278065133126223067e+26 4.480699258804707874e+00
1.970000000000000197e-06 2.269686985782855279e+26 4.481094699299085882e+00
1.980000000000000101e-06 2.260851849875687883e+26 4.480553216994797694e+00
1.990000000000000005e-06 2.252615072866962697e+26 4.480925050834167145e+00
1.999999999999999909e-06 2.243799352242085378e+26 4.480428655482879385e+00
2.010000000000000237e-06 2.235692867083993642e+26 4.480811725811794766e+00
2.020000000000000142e-06 2.227019235911990153e+26 4.480290814880282468e+00
2.030000000000000046e-06 2.219058702582506503e+26 4.480588997815853958e+00
2.039999999999999950e-06 2.210489445080678692e+26 4.480209735548164929e+00
2.049999999999999854e-06 2.202653465262175632e+26 4.480518759195733836e+00
2.060000000000000182e-06 2.194220649383418480e+26 4.480114663513655948e+00
2.070000000000000086e-06 2.186429076158362331e+26 4.479751054427906887e+00
2.079999999999999991e-06 2.178317048758376361e+26 4.479979607568516542e+00
2.089999999999999895e-06 2.170527823356429324e+26 4.479687522389554033e+00
2.100000000000000223e-06 2.162537409338940608e+26 4.479926388015767813e+00
2.110000000000000127e-06 2.154876583661987000e+26 4.479582199272590159e+00
2.120000000000000031e-06 2.146986981035651478e+26 4.479929413488030754e+00
2.129999999999999935e-06 2.139449253054830205e+26 4.479563974545421878e+00
2.139999999999999840e-06 2.131503823105954942e+26 4.479197111189225033e+00
2.150000000000000167e-06 2.124243759596524592e+26 4.479597411491394787e+00
2.160000000000000072e-06 2.116537760635886402e+26 4.479141850073245834e+00
2.169999999999999976e-06 2.109376617829410254e+26 4.479615356137218285e+00
2.179999999999999880e-06 2.101676667607059339e+26 4.479172760541230147e+00
2.190000000000000208e-06 2.094025824133858323e+26 4.478766416827697050e+00
2.200000000000000112e-06 2.087025155704949524e+26 4.479254575019109730e+00
2.210000000000000016e-06 2.079490883645495699e+26 4.478821504893303995e+00
2.219999999999999921e-06 2.072611375482528599e+26 4.479219093127006168e+00
2.230000000000000248e-06 2.065175890110290195e+26 4.478834343900885528e+00
2.240000000000000153e-06 2.058213235488171699e+26 4.478617418651978710e+00
2.250000000000000057e-06 2.051161321279046539e+26 4.478926961284543928e+00
2.259999999999999961e-06 2.043890173278524558e+26 4.478519280495087074e+00
2.269999999999999866e-06 2.037077850152076856e+26 4.478315951282573870e+00
2.280000000000000193e-06 2.030065346887882988e+26 4.478674413884085936e+00
2.290000000000000098e-06 2.023367653273155387e+26 4.478378108830031401e+00
2.300000000000000002e-06 2.016297524077593026e+26 4.477987225830736939e+00
2.309999999999999906e-06 2.009422557373188108e+26 4.478425198556209352e+00
2.320000000000000234e-06 2.002867957473661025e+26 4.478141836817393084e+00
2.330000000000000138e-06 1.995936893748948174e+26 4.477800157677666704e+00
2.340000000000000042e-06 1.989739926447911638e+26 4.478251396950490459e+00
2.349999999999999947e-06 1.982893703807770826e+26 4.477981409992981554e+00
2.359999999999999851e-06 1.976112431791385885e+26 4.477616046471258215e+00
2.370000000000000179e-06 1.969946790325481785e+26 4.478080029814230478e+00
2.380000000000000083e-06 1.963250496521022477e+26 4.477754858990479647e+00
2.389999999999999987e-06 1.956996339012430121e+26 4.477610427817177552e+00
2.399999999999999891e-06 1.950555853143525821e+26 4.477983458226205471e+00
2.410000000000000219e-06 1.944002244267010051e+26 4.477638234782720161e+00
2.420000000000000123e-06 1.937895280549550052e+26 4.477396921333891555e+00
2.430000000000000028e-06 1.931514919188981223e+26 4.477165325834494780e+00
2.439999999999999932e-06 1.925640463130400344e+26 4.477695745190505505e+00
2.450000000000000260e-06 1.919260356305696167e+26 4.477361924672088378e+00
2.460000000000000164e-06 1.912923163719565387e+26 4.477035914415156803e+00
2.470000000000000068e-06 1.907177475555533349e+26 4.477541405302106092e+00
2.479999999999999972e-06 1.900923231182934766e+26 4.477222461006213905e+00
2.489999999999999877e-06 1.894694124698473542e+26 4.477010683079049258e+00
2.500000000000000205e-06 1.888906403918494657e+26 4.476841672628328439e+00
2.510000000000000109e-06 1.883029023691205590e+26 4.477256845715991140e+00
2.520000000000000013e-06 1.876937919961761128e+26 4.476948395390794921e+00
2.529999999999999917e-06 1.871273200974370743e+26 4.476753308097059403e+00
2.540000000000000245e-06 1.865260886969101898e+26 4.476455759397739875e+00
2.550000000000000149e-06 1.859422025983592932e+26 4.476994303626062432e+00
2.560000000000000054e-06 1.853870509282672977e+26 4.476806326699438010e+00
2.569999999999999958e-06 1.847967330019324508e+26 4.476556553648715742e+00
2.579999999999999862e-06 1.842489264553685695e+26 4.476380116719034241e+00
2.590000000000000190e-06 1.836817279764568476e+26 4.476824017107116305e+00
2.600000000000000094e-06 1.831134486259217576e+26 4.476547420983936654e+00
2.609999999999999998e-06 1.825764733115222001e+26 4.476377643649116500e+00
2.619999999999999903e-06 1.820055057458040156e+26 4.476108132526089634e+00
2.630000000000000230e-06 1.814382356195193783e+26 4.475842116471678622e+00
2.640000000000000135e-06 1.809264689293342754e+26 4.476411549243738186e+00
2.650000000000000039e-06 1.803646930171173607e+26 4.476260487989147663e+00
