# z (um)	 Electron density (m^-3)
0.000000000000000000e+00 2.066814341510017586e+27 5.356304674422415424e+00
1.000000000000000021e-08 2.014489050047930437e+27 5.354528569285025519e+00
2.000000000000000042e-08 1.964268152428010054e+27 5.353058980725035276e+00
3.000000000000000394e-08 1.916857147337386997e+27 5.351872950974463805e+00
4.000000000000000084e-08 1.870961199069761548e+27 5.349350468446334439e+00
4.999999999999999774e-08 1.827273755052727917e+27 5.347855418450434328e+00
6.000000000000000787e-08 1.785414117918212051e+27 5.345770313520589845e+00
7.000000000000000477e-08 1.745137405888931639e+27 5.344500273142644531e+00
8.000000000000000167e-08 1.706960993863889644e+27 5.343550302494493920e+00
8.999999999999999857e-08 1.669910641901209835e+27 5.342040979334038653e+00
9.999999999999999547e-08 1.634381465213350280e+27 5.340794983358549963e+00
1.100000000000000056e-07 1.600661595809367122e+27 5.339689734516626984e+00
1.200000000000000157e-07 1.567826000673438516e+27 5.338056921458873560e+00
1.299999999999999994e-07 1.536278771847343898e+27 5.336492926539235349e+00
1.400000000000000095e-07 1.505614909757249065e+27 5.335118414632305850e+00
1.499999999999999932e-07 1.476343750367950991e+27 5.333090123023452200e+00
1.600000000000000033e-07 1.448254215070645498e+27 5.332026983586653834e+00
1.700000000000000135e-07 1.420782503543034203e+27 5.330357936510496941e+00
1.799999999999999971e-07 1.394712951987047889e+27 5.329491420033286353e+00
1.900000000000000073e-07 1.369159851647358513e+27 5.328181442907614418e+00
1.999999999999999909e-07 1.344902153902350387e+27 5.327631642670489498e+00
2.100000000000000011e-07 1.321087392859305399e+27 5.326511385856118608e+00
2.200000000000000112e-07 1.298074118198768768e+27 5.325540431437974398e+00
2.299999999999999949e-07 1.275744770226859016e+27 5.323854775825139996e+00
2.400000000000000315e-07 1.254228497498477869e+27 5.323186517395141593e+00
2.499999999999999887e-07 1.233419483930378888e+27 5.322617411164454637e+00
2.599999999999999988e-07 1.213197599837284612e+27 5.321350651289683320e+00
2.700000000000000090e-07 1.193604542872460445e+27 5.320172453795180445e+00
2.800000000000000191e-07 1.174695112840467474e+27 5.319996137354116250e+00
2.900000000000000292e-07 1.156283019379625367e+27 5.319076094223440521e+00
2.999999999999999864e-07 1.138175495984980340e+27 5.318266077806717007e+00
3.099999999999999966e-07 1.120862210401364611e+27 5.317557064585294313e+00
3.200000000000000067e-07 1.104052606495180739e+27 5.316949671783294029e+00
3.300000000000000168e-07 1.087411116612015579e+27 5.315706767136908262e+00
3.400000000000000270e-07 1.071559568188296241e+27 5.315320093505977006e+00
3.499999999999999842e-07 1.055847591233724881e+27 5.314265149024215873e+00
3.599999999999999943e-07 1.040644703200894541e+27 5.314071115580006222e+00
3.700000000000000044e-07 1.026021049526533039e+27 5.313088738083973972e+00
3.800000000000000146e-07 1.011645527724965937e+27 5.313034679425664208e+00
3.900000000000000247e-07 9.975854927207055305e+26 5.312231365609793698e+00
3.999999999999999819e-07 9.838951266011373369e+26 5.311507498141754269e+00
4.099999999999999920e-07 9.707863474469038650e+26 5.310839747810158329e+00
4.200000000000000022e-07 9.578023354928457176e+26 5.310386002961982044e+00
4.300000000000000123e-07 9.451514653275981465e+26 5.309884024482391496e+00
4.400000000000000224e-07 9.328302409477575017e+26 5.309331127039800258e+00
4.500000000000000326e-07 9.207482748393803268e+26 5.308224055796535445e+00
4.599999999999999898e-07 9.090301707457617578e+26 5.307926052542757844e+00
4.699999999999999999e-07 8.974137478831200999e+26 5.307750443994779133e+00
4.800000000000000630e-07 8.862064411892574259e+26 5.306715005214877046e+00
4.899999999999999672e-07 8.753282482911535451e+26 5.306604611399078131e+00
4.999999999999999774e-07 8.646492689072777392e+26 5.305718085235814563e+00
5.099999999999999875e-07 8.540908423108486536e+26 5.305756192780287428e+00
5.199999999999999976e-07 8.439065223018768515e+26 5.304982499228372284e+00
5.300000000000000078e-07 8.340214793617337937e+26 5.305097996691249485e+00
5.400000000000000179e-07 8.241157589237212154e+26 5.304465699755107622e+00
5.500000000000000281e-07 8.146179036898413651e+26 5.303818613746968502e+00
5.600000000000000382e-07 8.051517926407166265e+26 5.303289001545524961e+00
5.700000000000000483e-07 7.961313569530088918e+26 5.303606959146313748e+00
5.800000000000000585e-07 7.870756745712485308e+26 5.303174352545669379e+00
5.899999999999999627e-07 7.783917927237909803e+26 5.302748016623379357e+00
5.999999999999999728e-07 7.697223099313171714e+26 5.302406986877260309e+00
6.099999999999999830e-07 7.612404895386194832e+26 5.302080108219101362e+00
6.199999999999999931e-07 7.531037461208531258e+26 5.301783651292443444e+00
6.300000000000000033e-07 7.449707200011419793e+26 5.301571791984518889e+00
6.400000000000000134e-07 7.370070611281375469e+26 5.301401135244321772e+00
6.500000000000000235e-07 7.293716554584846906e+26 5.301103895689221801e+00
6.600000000000000337e-07 7.216757665584091967e+26 5.300263197183425312e+00
6.700000000000000438e-07 7.141871114925778324e+26 5.300209098533481544e+00
6.800000000000000539e-07 7.068489250708638883e+26 5.300192417544828061e+00
6.900000000000000641e-07 6.996684967314281380e+26 5.300212467627678059e+00
6.999999999999999683e-07 6.927201862213252269e+26 5.299350829506225047e+00
7.099999999999999785e-07 6.858055968850716135e+26 5.299440748043991789e+00
7.199999999999999886e-07 6.790241978916788359e+26 5.299565180016667654e+00
7.299999999999999987e-07 6.723259532844866576e+26 5.298851739189587740e+00
7.400000000000000089e-07 6.657993645484830817e+26 5.299044762963440292e+00
7.500000000000000190e-07 6.593506174300445859e+26 5.298426058283014051e+00
7.600000000000000291e-07 6.530218685254651174e+26 5.297930634075401102e+00
7.700000000000000393e-07 6.468584709747494690e+26 5.298095783123625502e+00
7.800000000000000494e-07 6.407613798486520107e+26 5.297660937789605562e+00
7.900000000000000595e-07 6.348211422251644742e+26 5.297916092433246682e+00
7.999999999999999638e-07 6.289438284314061715e+26 5.297539335829918983e+00
8.099999999999999739e-07 6.230344807040807395e+26 5.297122547786526248e+00
8.199999999999999841e-07 6.173675390233259132e+26 5.296682630792218127e+00
8.299999999999999942e-07 6.117992543023661393e+26 5.296419090182640232e+00
8.400000000000000043e-07 6.063753327291751121e+26 5.296782499215188622e+00
8.500000000000000145e-07 6.010017757547666091e+26 5.296448095540347012e+00
8.600000000000000246e-07 5.955862600197443306e+26 5.296293090281814386e+00
8.700000000000000347e-07 5.903991733399116525e+26 5.295978933618882500e+00
8.800000000000000449e-07 5.852977091787077361e+26 5.295723528035697569e+00
8.900000000000000550e-07 5.802853598392991729e+26 5.295457638946801104e+00
9.000000000000000652e-07 5.752371758192350021e+26 5.295307615167876847e+00
9.099999999999999694e-07 5.703921259055261051e+26 5.295088000936966743e+00
9.199999999999999795e-07 5.656245134562254217e+26 5.294926126948398704e+00
9.299999999999999897e-07 5.608120869039171311e+26 5.294809921310850598e+00
9.399999999999999998e-07 5.562000981394713763e+26 5.294692153232214871e+00
9.500000000000000100e-07 5.516634666647571719e+26 5.294566473013702534e+00
9.600000000000001260e-07 5.470780182030611978e+26 5.294544628619115123e+00
9.700000000000000302e-07 5.426449738385540100e+26 5.293739573381439634e+00
9.799999999999999345e-07 5.382030100042195802e+26 5.293736107360766496e+00
9.900000000000000505e-07 5.339502384104905116e+26 5.293715495624979894e+00
9.999999999999999547e-07 5.296454085064893167e+26 5.293752541052919369e+00
1.010000000000000071e-06 5.254845078493709089e+26 5.293027559400000470e+00
1.019999999999999975e-06 5.213129448111678764e+26 5.293000905348311136e+00
1.030000000000000091e-06 5.173188569765578793e+26 5.293034846915758429e+00
1.039999999999999995e-06 5.132698975838868191e+26 5.293178466660382497e+00
1.050000000000000111e-06 5.093582437025494888e+26 5.292528230554338187e+00
1.060000000000000016e-06 5.054329370589089728e+26 5.292575395075012956e+00
1.069999999999999920e-06 5.016764703704334334e+26 5.292682744808214323e+00
1.080000000000000036e-06 4.978269675675115387e+26 5.292147310168976659e+00
1.089999999999999940e-06 4.940721210148212217e+26 5.292255637066060281e+00
1.100000000000000056e-06 4.904549722100457599e+26 5.291692317460231720e+00
1.109999999999999960e-06 4.868111839833271765e+26 5.291796178648562332e+00
1.120000000000000076e-06 4.831800996331531480e+26 5.291328359082171140e+00
1.129999999999999981e-06 4.797458439360734277e+26 5.291440506916290865e+00
1.140000000000000097e-06 4.762170957941785021e+26 5.291004413290639086e+00
1.150000000000000001e-06 4.727751065986916013e+26 5.291210886394147828e+00
1.160000000000000117e-06 4.694502825989406812e+26 5.290743098501847541e+00
1.170000000000000021e-06 4.661049821758589580e+26 5.290950946201556704e+00
1.179999999999999925e-06 4.627696990632342694e+26 5.290576113832949900e+00
1.190000000000000041e-06 4.595163231939710284e+26 5.290832343374574087e+00
1.199999999999999946e-06 4.563740924492751134e+26 5.290423325736278493e+00
1.210000000000000062e-06 4.531740482920438493e+26 5.289965892932906755e+00
1.219999999999999966e-06 4.500510306247645058e+26 5.290275169731256000e+00
1.230000000000000082e-06 4.469354074631903799e+26 5.289970881279352000e+00
1.239999999999999986e-06 4.438632727028743489e+26 5.289555402433611775e+00
1.250000000000000102e-06 4.409631158668684820e+26 5.289842540892317757e+00
1.260000000000000007e-06 4.379694602428747816e+26 5.289578466639983212e+00
1.270000000000000123e-06 4.350169988940515032e+26 5.289202708374324935e+00
1.280000000000000027e-06 4.321345750670477071e+26 5.289592654105765845e+00
1.289999999999999931e-06 4.292574544042151513e+26 5.289368084553733418e+00
1.300000000000000047e-06 4.264290732848076020e+26 5.289030800909605645e+00
1.309999999999999951e-06 4.236266366897805985e+26 5.288706014454638726e+00
1.320000000000000067e-06 4.209857641332105355e+26 5.289084045075784779e+00
1.329999999999999972e-06 4.182532580061879973e+26 5.288909355459029626e+00
1.340000000000000088e-06 4.155561959812359250e+26 5.288621174481872522e+00
1.349999999999999992e-06 4.128937554486476136e+26 5.288345211833163084e+00
1.360000000000000108e-06 4.102643345678155422e+26 5.288080742321882965e+00
1.370000000000000012e-06 4.076673138305566625e+26 5.287856774083826927e+00
1.380000000000000128e-06 4.051035940435738920e+26 5.287615544331390360e+00
1.390000000000000032e-06 4.026007704098597694e+26 5.288139152432142609e+00
1.399999999999999937e-06 4.000986707301540830e+26 5.288045499676680805e+00
1.410000000000000053e-06 3.976283052741366161e+26 5.287837345792786081e+00
1.419999999999999957e-06 3.951875355637804804e+26 5.287639662722844136e+00
1.430000000000000073e-06 3.927767670458705433e+26 5.287452725108583884e+00
1.439999999999999977e-06 3.903940533966008640e+26 5.287304717271911869e+00
1.450000000000000093e-06 3.880403016924979240e+26 5.287138284565234159e+00
1.459999999999999997e-06 3.857149916081694864e+26 5.286982200403025800e+00
1.470000000000000113e-06 3.834171628252088194e+26 5.286836187671910103e+00
1.480000000000000018e-06 3.811463363857529461e+26 5.286700165333262369e+00
1.490000000000000134e-06 3.789006797355309333e+26 5.286602407960445227e+00
1.500000000000000038e-06 3.766921667159600497e+26 5.286486042214014525e+00
1.509999999999999942e-06 3.744996043757781945e+26 5.286379632686558416e+00
1.520000000000000058e-06 3.723318201188313986e+26 5.286282896919277441e+00
1.529999999999999963e-06 3.701884153679053930e+26 5.286224281792019752e+00
1.540000000000000079e-06 3.680703181519312201e+26 5.286146912915079099e+00
1.549999999999999983e-06 3.659762446134295852e+26 5.286079055525050308e+00
1.560000000000000099e-06 3.639053711717135532e+26 5.286020640877270971e+00
1.570000000000000003e-06 3.617768137642804390e+26 5.286059430552747962e+00
1.580000000000000119e-06 3.597530247370725649e+26 5.286019118680485462e+00
1.590000000000000023e-06 3.577517832639486643e+26 5.285987882233012414e+00
1.599999999999999928e-06 3.557724411381018689e+26 5.285868531525702352e+00
1.610000000000000044e-06 3.538147225572444374e+26 5.285870670849381447e+00
1.619999999999999948e-06 3.518532088582309198e+26 5.285109787405941617e+00
1.630000000000000064e-06 3.499381442404553403e+26 5.285141889033255325e+00
1.639999999999999968e-06 3.480443906806050758e+26 5.285154583498846925e+00
1.650000000000000084e-06 3.460947454186662417e+26 5.285233096025668154e+00
1.659999999999999988e-06 3.442418841214811702e+26 5.285289986931150708e+00
1.670000000000000104e-06 3.424107429185048576e+26 5.285201450373764764e+00
1.680000000000000009e-06 3.405732094126125913e+26 5.284489701428491060e+00
1.690000000000000125e-06 3.387887017930800684e+26 5.284570705043525329e+00
1.700000000000000029e-06 3.369395175392308937e+26 5.284688570121696571e+00
1.709999999999999933e-06 3.351842426473406237e+26 5.284772731890539532e+00
1.720000000000000049e-06 3.334479563970730283e+26 5.284751678718106582e+00
1.729999999999999953e-06 3.317052225372383361e+26 5.284078596747709966e+00
1.740000000000000069e-06 3.300040855538857875e+26 5.284198566617631876e+00
1.749999999999999974e-06 3.282484803067954247e+26 5.284353292965343840e+00
1.760000000000000090e-06 3.265592168847067696e+26 5.283703549093750063e+00
1.769999999999999994e-06 3.249107911558519621e+26 5.283720414593223502e+00
1.780000000000000110e-06 3.232793632282820210e+26 5.283842868918062763e+00
1.790000000000000014e-06 3.215923815286635653e+26 5.284055040239066692e+00
1.800000000000000130e-06 3.199712784189358225e+26 5.283309046467523196e+00
1.810000000000000035e-06 3.183881917256913611e+26 5.283481962747909044e+00
1.819999999999999939e-06 3.167511714085109884e+26 5.283703548739771882e+00
1.830000000000000055e-06 3.151765136373126023e+26 5.283133874921857931e+00
1.839999999999999959e-06 3.136421210361624724e+26 5.283174585011146895e+00
1.850000000000000075e-06 3.120522314514851347e+26 5.283429865687842231e+00
1.859999999999999979e-06 3.105245225978985835e+26 5.282853810212506218e+00
1.870000000000000095e-06 3.090443597528700858e+26 5.282916108362109675e+00
1.880000000000000000e-06 3.075455871167514023e+26 5.282382674403550915e+00
1.890000000000000116e-06 3.060170950055489202e+26 5.282636983320663226e+00
1.900000000000000020e-06 3.045709292306807551e+26 5.282748320503203310e+00
1.909999999999999924e-06 3.031156750748933766e+26 5.282235293278275456e+00
1.920000000000000252e-06 3.016316922921455716e+26 5.282382847822344907e+00
1.930000000000000156e-06 3.002047117943940072e+26 5.281882814766365009e+00
1.940000000000000060e-06 2.987482436476439091e+26 5.282169571825090948e+00
1.949999999999999965e-06 2.973714985875964813e+26 5.282313839921762622e+00
1.959999999999999869e-06 2.959859881497384164e+26 5.281805232021994811e+00
1.970000000000000197e-06 2.945704930981597169e+26 5.282011798420827020e+00
1.980000000000000101e-06 2.932117362662932938e+26 5.281514556979216124e+00
1.990000000000000005e-06 2.918861191462283063e+26 5.281811253583929222e+00
1.999999999999999909e-06 2.904890757650697715e+26 5.281235471583306307e+00
2.010000000000000237e-06 2.891883533232979077e+26 5.281544640898341747e+00
2.020000000000000142e-06 2.878157860301136341e+26 5.281022663761932634e+00
2.030000000000000046e-06 2.865398338613250025e+26 5.281316325747025253e+00
2.039999999999999950e-06 2.852549706694875819e+26 5.280758302350768041e+00
2.049999999999999854e-06 2.839395814456549658e+26 5.281111325288317282e+00
2.060000000000000182e-06 2.826861122474717930e+26 5.280566728465640125e+00
2.070000000000000086e-06 2.813939479145309052e+26 5.280931807244703791e+00
2.079999999999999991e-06 2.801547529312553746e+26 5.280398398471616517e+00
2.089999999999999895e-06 2.788846199228071928e+26 5.280791022928600142e+00
2.100000000000000223e-06 2.776675884215763343e+26 5.280243247449046606e+00
2.110000000000000127e-06 2.764602687121807532e+26 5.279856254499320833e+00
2.120000000000000031e-06 2.752236921490269412e+26 5.280151499613405797e+00
2.129999999999999935e-06 2.740378624737131554e+26 5.279749927058428938e+00
2.139999999999999840e-06 2.728231980903472603e+26 5.280055987940508899e+00
2.150000000000000167e-06 2.716583156625710558e+26 5.279655383655208034e+00
2.160000000000000072e-06 2.704647850079297827e+26 5.279973262049975524e+00
2.169999999999999976e-06 2.693205605827707180e+26 5.279496201297015467e+00
2.179999999999999880e-06 2.681279971754956928e+26 5.279165896352576937e+00
2.190000000000000208e-06 2.670237726854922994e+26 5.279449424330472596e+00
2.200000000000000112e-06 2.658511949959053190e+26 5.279157969371708781e+00
2.210000000000000016e-06 2.647482587530402787e+26 5.278675797411978898e+00
2.219999999999999921e-06 2.636149124782964543e+26 5.279145734223591901e+00
2.230000000000000248e-06 2.625307839250857961e+26 5.278702837500024003e+00
2.240000000000000153e-06 2.614079367524269106e+26 5.278278350348038828e+00
2.250000000000000057e-06 2.603607540470112191e+26 5.278725424651371512e+00
2.259999999999999961e-06 2.592480190520572758e+26 5.278339079489692054e+00
2.269999999999999866e-06 2.582010668191974209e+26 5.278011445787726963e+00
2.280000000000000193e-06 2.571258250599761827e+26 5.278394599356584393e+00
2.290000000000000098e-06 2.560966435733634885e+26 5.277978663550162430e+00
2.300000000000000002e-06 2.550191893965001560e+26 5.277741918925228148e+00
2.309999999999999906e-06 2.540263794098434095e+26 5.278069276737078042e+00
2.320000000000000234e-06 2.529672664261266477e+26 5.277708311267088170e+00
2.330000000000000138e-06 2.519714029502842728e+26 5.277450939038051736e+00
2.340000000000000042e-06 2.509296009852218074e+26 5.277073631834921841e+00
2.349999999999999947e-06 2.499676034643845393e+26 5.277581511188198071e+00
2.359999999999999851e-06 2.489413913971723077e+26 5.277243210067780410e+00
2.370000000000000179e-06 2.479772390750214383e+26 5.276876164060758434e+00
2.380000000000000083e-06 2.469673022306339537e+26 5.276651286798305307e+00
2.389999999999999987e-06 2.460365437110660750e+26 5.277055448091190648e+00
2.399999999999999891e-06 2.450423411553998213e+26 5.276740983473983349e+00
2.410000000000000219e-06 2.441167728958903760e+26 5.276395899084845631e+00
2.420000000000000123e-06 2.431380340455499232e+26 5.276194729666271677e+00
2.430000000000000028e-06 2.421850359624478141e+26 5.276654807307466832e+00
2.439999999999999932e-06 2.412743374442121285e+26 5.276330665939263476e+00
2.450000000000000260e-06 2.403182674295876065e+26 5.276173694290304361e+00
2.460000000000000164e-06 2.394225082502717711e+26 5.275863473710412421e+00
2.470000000000000068e-06 2.384834096489644511e+26 5.275564806042229549e+00
2.479999999999999972e-06 2.376192026342888387e+26 5.276156579381066081e+00
2.489999999999999877e-06 2.366946066292694016e+26 5.275898211164066431e+00
2.500000000000000205e-06 2.357775796826489435e+26 5.275647166126585574e+00
2.510000000000000109e-06 2.349192857924709755e+26 5.275346655104575788e+00
2.520000000000000013e-06 2.340166010854028174e+26 5.275241855590388163e+00
2.529999999999999917e-06 2.331721155034686537e+26 5.274988216739600944e+00
2.540000000000000245e-06 2.323017095873002222e+26 5.275533556019729176e+00
2.550000000000000149e-06 2.314215833658428851e+26 5.275334302252578489e+00
2.560000000000000054e-06 2.305984316367704962e+26 5.275229019663973951e+00
2.569999999999999958e-06 2.297340636982305848e+26 5.275092481494104035e+00
2.579999999999999862e-06 2.289332732896374192e+26 5.274946849584688735e+00
2.590000000000000190e-06 2.280759374986179950e+26 5.274715904359269736e+00
2.600000000000000094e-06 2.272410186322372329e+26 5.275377262714511239e+00
2.609999999999999998e-06 2.264448188276866733e+26 5.275129337822351161e+00
2.619999999999999903e-06 2.256067337263479736e+26 5.274882004324257245e+00
2.630000000000000230e-06 2.248224014849613922e+26 5.274642772987719219e+00
2.640000000000000135e-06 2.239953002248155633e+26 5.274560935362012870e+00
2.650000000000000039e-06 2.231748879790448838e+26 5.274352373205737798e+00
