# z (um)	 Electron density (m^-3)
0.000000000000000000e+00 4.689629056212802802e+27 3.101833243833906018e+00
1.000000000000000021e-08 4.308953325790786327e+27 3.097204751666447820e+00
2.000000000000000042e-08 3.993594392341537813e+27 3.092030029279695835e+00
3.000000000000000394e-08 3.729355060908511180e+27 3.086843087582580303e+00
4.000000000000000084e-08 3.503236796361749617e+27 3.081727156511907761e+00
4.999999999999999774e-08 3.308347535942514269e+27 3.076600351869253736e+00
6.000000000000000787e-08 3.138249922297857365e+27 3.071622550797588502e+00
7.000000000000000477e-08 2.987919993578567056e+27 3.066752822986464011e+00
8.000000000000000167e-08 2.854945798801459729e+27 3.062489665104862091e+00
8.999999999999999857e-08 2.735733889344595011e+27 3.058086680253462308e+00
9.999999999999999547e-08 2.628402378980517096e+27 3.054022860486109270e+00
1.100000000000000056e-07 2.530825342047759911e+27 3.050296352658377064e+00
1.200000000000000157e-07 2.441569173211458041e+27 3.046861499178473931e+00
1.299999999999999994e-07 2.360603649920105780e+27 3.043332660410782431e+00
1.400000000000000095e-07 2.285264401727031462e+27 3.040220891950898174e+00
1.499999999999999932e-07 2.216399388576624952e+27 3.037362522889438754e+00
1.600000000000000033e-07 2.151920123979366836e+27 3.034694875460414387e+00
1.700000000000000135e-07 2.091996385726292615e+27 3.032422707027123909e+00
1.799999999999999971e-07 2.036027675786727004e+27 3.030111509360090771e+00
1.900000000000000073e-07 1.983958745954826913e+27 3.027569671594382061e+00
1.999999999999999909e-07 1.934166710823576511e+27 3.025979942220860863e+00
2.100000000000000011e-07 1.888353788462379710e+27 3.023692433801302482e+00
2.200000000000000112e-07 1.844669556166413619e+27 3.022354664020985293e+00
2.299999999999999949e-07 1.802761377288232354e+27 3.020698866039817521e+00
2.400000000000000315e-07 1.763602809609601110e+27 3.019177733738934943e+00
2.499999999999999887e-07 1.726755966977236741e+27 3.017708911566356011e+00
2.599999999999999988e-07 1.691518480495656952e+27 3.016178161057325280e+00
2.700000000000000090e-07 1.657541930343122237e+27 3.015087601133363826e+00
2.800000000000000191e-07 1.625414072426097417e+27 3.014110356578624028e+00
2.900000000000000292e-07 1.594741669867641572e+27 3.012780506898939059e+00
2.999999999999999864e-07 1.565390300689436214e+27 3.011713196551299987e+00
3.099999999999999966e-07 1.537235173663269948e+27 3.011151430685449437e+00
3.200000000000000067e-07 1.510524892612004791e+27 3.009780158890444479e+00
3.300000000000000168e-07 1.484670796781811615e+27 3.009134353637803905e+00
3.400000000000000270e-07 1.459342665067991249e+27 3.008505303340740955e+00
3.499999999999999842e-07 1.435528255762361418e+27 3.007722682635531442e+00
3.599999999999999943e-07 1.412766153616849271e+27 3.006799981102267427e+00
3.700000000000000044e-07 1.390384421984766043e+27 3.006302445795992817e+00
3.800000000000000146e-07 1.369142658601697535e+27 3.005664545646619779e+00
3.900000000000000247e-07 1.348206610745407510e+27 3.005063921683839290e+00
3.999999999999999819e-07 1.327998172384951271e+27 3.004695224941498655e+00
4.099999999999999920e-07 1.309065218671291662e+27 3.003925369155508118e+00
4.200000000000000022e-07 1.290247917406715821e+27 3.003677007008000555e+00
4.300000000000000123e-07 1.271924435038433157e+27 3.003165714069987668e+00
4.400000000000000224e-07 1.254871266709868454e+27 3.002546185309602489e+00
4.500000000000000326e-07 1.237677941079366602e+27 3.002096380409146725e+00
4.599999999999999898e-07 1.221155306587736464e+27 3.001725048121418382e+00
4.699999999999999999e-07 1.205176348717764732e+27 3.001383739179259713e+00
4.800000000000000630e-07 1.189631534301014520e+27 3.001069212098921302e+00
4.899999999999999672e-07 1.174499264625809351e+27 3.000780996158825875e+00
4.999999999999999774e-07 1.159822449455299221e+27 3.000263058644213832e+00
5.099999999999999875e-07 1.145581375937123306e+27 3.000023803527069877e+00
5.199999999999999976e-07 1.131620799458389950e+27 3.000001780104798677e+00
5.300000000000000078e-07 1.118171331976774269e+27 2.999550973459142789e+00
5.400000000000000179e-07 1.105116740274834422e+27 2.999119727879986375e+00
5.500000000000000281e-07 1.091923317313095741e+27 2.999152209933596325e+00
5.600000000000000382e-07 1.079672716340642093e+27 2.998816018540126471e+00
5.700000000000000483e-07 1.067620845189857050e+27 2.998443240019165401e+00
5.800000000000000585e-07 1.055707307815192549e+27 2.998340297954038558e+00
5.899999999999999627e-07 1.044004592919689116e+27 2.997990255111903757e+00
5.999999999999999728e-07 1.032670548064142210e+27 2.997921172876231388e+00
6.099999999999999830e-07 1.021834167488194104e+27 2.997612379472388344e+00
6.199999999999999931e-07 1.010897006098243373e+27 2.997563192158660961e+00
6.300000000000000033e-07 1.000348062870395420e+27 2.997540307894361877e+00
6.400000000000000134e-07 9.900443552951167893e+26 2.996810230692696919e+00
6.500000000000000235e-07 9.800674051776040556e+26 2.996813917138390515e+00
6.600000000000000337e-07 9.699925826552386832e+26 2.996820828304923356e+00
6.700000000000000438e-07 9.605696607742273528e+26 2.996396823677876409e+00
6.800000000000000539e-07 9.510793267076828267e+26 2.996426295101965120e+00
6.900000000000000641e-07 9.418064639542899210e+26 2.996221248997152031e+00
6.999999999999999683e-07 9.326170418516477186e+26 2.996211776248315584e+00
7.099999999999999785e-07 9.239830089906423391e+26 2.995833980094492421e+00
7.199999999999999886e-07 9.153167253784703264e+26 2.995455068123543008e+00
7.299999999999999987e-07 9.066596774356038916e+26 2.995799819203009307e+00
7.400000000000000089e-07 8.984640887454653626e+26 2.995455487621424773e+00
7.500000000000000190e-07 8.902235828045704631e+26 2.995301672785677827e+00
7.600000000000000291e-07 8.821025370001025057e+26 2.995419857527682694e+00
7.700000000000000393e-07 8.743254169305710679e+26 2.995298204693782829e+00
7.800000000000000494e-07 8.666182831582998497e+26 2.994979763210135815e+00
7.900000000000000595e-07 8.589549737801687815e+26 2.994932860104461358e+00
7.999999999999999638e-07 8.514855344408745612e+26 2.994826297374638013e+00
8.099999999999999739e-07 8.444392973064981573e+26 2.994547987928220856e+00
8.199999999999999841e-07 8.371863271368494178e+26 2.994459060387580696e+00
8.299999999999999942e-07 8.301617380662279423e+26 2.994447307973228334e+00
8.400000000000000043e-07 8.232311648944895956e+26 2.994374973403785223e+00
8.500000000000000145e-07 8.164606899500261383e+26 2.994380237669142186e+00
8.600000000000000246e-07 8.097197521544128972e+26 2.994323485060938150e+00
8.700000000000000347e-07 8.031889983164590398e+26 2.994344542780088325e+00
8.800000000000000449e-07 7.967266925568164376e+26 2.993845740051325421e+00
8.900000000000000550e-07 7.906032423126212959e+26 2.993895332442042534e+00
9.000000000000000652e-07 7.843149432870617769e+26 2.993866645453397979e+00
9.099999999999999694e-07 7.782209401937728387e+26 2.993915955760525716e+00
9.199999999999999795e-07 7.722883041710377836e+26 2.993441471126589093e+00
9.299999999999999897e-07 7.663943129832110414e+26 2.993503304273919863e+00
9.399999999999999998e-07 7.605100581526886497e+26 2.993498631570950419e+00
9.500000000000000100e-07 7.548482694997433054e+26 2.993114416068021200e+00
9.600000000000001260e-07 7.491573888253591095e+26 2.993386540952635677e+00
9.700000000000000302e-07 7.436021331447660227e+26 2.993397635504850385e+00
9.799999999999999345e-07 7.380287133642559200e+26 2.993013620635775585e+00
9.900000000000000505e-07 7.326754275561713502e+26 2.993108220527959773e+00
9.999999999999999547e-07 7.273894346973283421e+26 2.992942045182140909e+00
1.010000000000000071e-06 7.221230556158513276e+26 2.992973563386502889e+00
1.019999999999999975e-06 7.170443579791613243e+26 2.992624035317964282e+00
1.030000000000000091e-06 7.120203982524893273e+26 2.992472283564134194e+00
1.039999999999999995e-06 7.071303990824912697e+26 2.992591502688220828e+00
1.050000000000000111e-06 7.022117716748803440e+26 2.992451161375581759e+00
1.060000000000000016e-06 6.971599220228002570e+26 2.992491306070029999e+00
1.069999999999999920e-06 6.924054546599618088e+26 2.992360188757134054e+00
1.080000000000000036e-06 6.878186120156426807e+26 2.992041633901817654e+00
1.089999999999999940e-06 6.830545730506130321e+26 2.992382172987428923e+00
1.100000000000000056e-06 6.786035355447394355e+26 2.992074423826703633e+00
1.109999999999999960e-06 6.739932560445414901e+26 2.991948760386347050e+00
1.120000000000000076e-06 6.695259304321253295e+26 2.992112682589951334e+00
1.129999999999999981e-06 6.651505864642791407e+26 2.992012913969930743e+00
1.140000000000000097e-06 6.608859661060783077e+26 2.991917909172509216e+00
1.150000000000000001e-06 6.566216655028817459e+26 2.991618867701772988e+00
1.160000000000000117e-06 6.524760829958777966e+26 2.991533033779899764e+00
1.170000000000000021e-06 6.482623379249135762e+26 2.991912463901142960e+00
1.179999999999999925e-06 6.442559528172876420e+26 2.991643608467872362e+00
1.190000000000000041e-06 6.401307535614999857e+26 2.991554089757376911e+00
1.199999999999999946e-06 6.361187152146637491e+26 2.991484760909880247e+00
1.210000000000000062e-06 6.322452779121520648e+26 2.991418056018586569e+00
1.219999999999999966e-06 6.283392417957394257e+26 2.991336885517434485e+00
1.230000000000000082e-06 6.245892417406344932e+26 2.991084876945722115e+00
1.239999999999999986e-06 6.207924997650171269e+26 2.991027042323922913e+00
1.250000000000000102e-06 6.169305928242406400e+26 2.990956136531626619e+00
1.260000000000000007e-06 6.133197204963676107e+26 2.990983233222658022e+00
1.270000000000000123e-06 6.095647379063453045e+26 2.990915872454456892e+00
1.280000000000000027e-06 6.060176618303438021e+26 2.990868365967997544e+00
1.289999999999999931e-06 6.025754361949762392e+26 2.990631644017357704e+00
1.300000000000000047e-06 5.988932972308472214e+26 2.990573340321085904e+00
1.309999999999999951e-06 5.954741117621789135e+26 2.990533961122678885e+00
1.320000000000000067e-06 5.920051699716071789e+26 2.990560558580362294e+00
1.329999999999999972e-06 5.886690315101070559e+26 2.990527152614315121e+00
1.340000000000000088e-06 5.851586754745180600e+26 2.990480516727751059e+00
1.349999999999999992e-06 5.819048207093310429e+26 2.990453706784258259e+00
1.360000000000000108e-06 5.785803524403200126e+26 2.990493878422546992e+00
1.370000000000000012e-06 5.753405478984188239e+26 2.990474054759074463e+00
1.380000000000000128e-06 5.721701349766988453e+26 2.990458386003208791e+00
1.390000000000000032e-06 5.689764190422415490e+26 2.989966512116035258e+00
1.399999999999999937e-06 5.659545429998017958e+26 2.990038487503400066e+00
1.410000000000000053e-06 5.627698728560448466e+26 2.990016879099662628e+00
1.419999999999999957e-06 5.596586027056140593e+26 2.989998506303100712e+00
1.430000000000000073e-06 5.566564512489716089e+26 2.990083432426745791e+00
1.439999999999999977e-06 5.537384664321790429e+26 2.989607058876706080e+00
1.450000000000000093e-06 5.508254110346829257e+26 2.989616236807752792e+00
1.459999999999999997e-06 5.477779989954385990e+26 2.989884615535493673e+00
1.470000000000000113e-06 5.449309308443227487e+26 2.989899270234637640e+00
1.480000000000000018e-06 5.420889123479627037e+26 2.989433943926797177e+00
1.490000000000000134e-06 5.393171288060533730e+26 2.989536076660971098e+00
1.500000000000000038e-06 5.364376162610122024e+26 2.989539794327984890e+00
1.509999999999999942e-06 5.338172404495139202e+26 2.989644620296972199e+00
1.520000000000000058e-06 5.309640551983128194e+26 2.989378771841831650e+00
1.529999999999999963e-06 5.281707617860303551e+26 2.989387230957998298e+00
1.540000000000000079e-06 5.255792565715150756e+26 2.989498111583515083e+00
1.549999999999999983e-06 5.229143647048371137e+26 2.989043550789924453e+00
1.560000000000000099e-06 5.203415262438019180e+26 2.989157617129552857e+00
1.570000000000000003e-06 5.175950533324660816e+26 2.989362092314532315e+00
1.580000000000000119e-06 5.150686408166967737e+26 2.988995900727622335e+00
1.590000000000000023e-06 5.125529568153743248e+26 2.989030501491324099e+00
1.599999999999999928e-06 5.099394717253057230e+26 2.989133512498159728e+00
1.610000000000000044e-06 5.074181460964094022e+26 2.988879085408822078e+00
1.619999999999999948e-06 5.049996807937263744e+26 2.989004715691633063e+00
1.630000000000000064e-06 5.025252935820562278e+26 2.988564975627587827e+00
1.639999999999999968e-06 5.000928678430231457e+26 2.988676570714849046e+00
1.650000000000000084e-06 4.976811212724249098e+26 2.988915871458267759e+00
1.659999999999999988e-06 4.953043109779085306e+26 2.988569725972859192e+00
1.670000000000000104e-06 4.928820127421635185e+26 2.988606015384926984e+00
1.680000000000000009e-06 4.906158685828195564e+26 2.988473266356827196e+00
1.690000000000000125e-06 4.882751296698292851e+26 2.988515701638684519e+00
1.700000000000000029e-06 4.860058810347778961e+26 2.988181353861840694e+00
1.709999999999999933e-06 4.837542167412911960e+26 2.988436873990216736e+00
1.720000000000000049e-06 4.815316844983254208e+26 2.988107926556733851e+00
1.729999999999999953e-06 4.792480684783596088e+26 2.988247052845165896e+00
1.740000000000000069e-06 4.770490631857301450e+26 2.988025909721999440e+00
1.749999999999999974e-06 4.749427753414159310e+26 2.988187497462691411e+00
1.760000000000000090e-06 4.727008037592837506e+26 2.987970944885513624e+00
1.769999999999999994e-06 4.706014687033814544e+26 2.988116189012868684e+00
1.780000000000000110e-06 4.685237245950274598e+26 2.988007027052346665e+00
1.790000000000000014e-06 4.663673869358198601e+26 2.988069082138612664e+00
1.800000000000000130e-06 4.642643791608126027e+26 2.987941875286852067e+00
1.810000000000000035e-06 4.621905456849288322e+26 2.988092578281050571e+00
1.819999999999999939e-06 4.602478934396404545e+26 2.987709304980537439e+00
1.830000000000000055e-06 4.581404795768978855e+26 2.988050079280509586e+00
1.839999999999999959e-06 4.561260102587646375e+26 2.987649672271835755e+00
1.850000000000000075e-06 4.540457786545259474e+26 2.987527111305983585e+00
1.859999999999999979e-06 4.521008757192316141e+26 2.987680709330259088e+00
1.870000000000000095e-06 4.501582698364385102e+26 2.987491687354847603e+00
1.880000000000000000e-06 4.481750318875695680e+26 2.987648757798099020e+00
1.890000000000000116e-06 4.462259754306875622e+26 2.987530252934137653e+00
1.900000000000000020e-06 4.443152599905639132e+26 2.987136865069834446e+00
1.909999999999999924e-06 4.423332554544865059e+26 2.987490112833628420e+00
1.920000000000000252e-06 4.406200155548834779e+26 2.987206347104854220e+00
1.930000000000000156e-06 4.386825482745654100e+26 2.987564231114273383e+00
1.940000000000000060e-06 4.368098897611013147e+26 2.987179685549976149e+00
1.949999999999999965e-06 4.350053624903186178e+26 2.987074702585230668e+00
1.959999999999999869e-06 4.331334642794705955e+26 2.987250057204083653e+00
1.970000000000000197e-06 4.314149005762382018e+26 2.987082618822332059e+00
1.980000000000000101e-06 4.296722287132804734e+26 2.986794846095372602e+00
1.990000000000000005e-06 4.278252702766289456e+26 2.987167749969761310e+00
1.999999999999999909e-06 4.260297242401213242e+26 2.987075768756678684e+00
2.010000000000000237e-06 4.243529810297988043e+26 2.986705731793629859e+00
2.020000000000000142e-06 4.225365864503790037e+26 2.987083827018109261e+00
2.030000000000000046e-06 4.208286629846579700e+26 2.986806257634192274e+00
2.039999999999999950e-06 4.192882646830995779e+26 2.986738308870590330e+00
2.049999999999999854e-06 4.175627912592878620e+26 2.986652553894973305e+00
2.060000000000000182e-06 4.158602021265884833e+26 2.986755739025155787e+00
2.070000000000000086e-06 4.141997571597528874e+26 2.986669848920051162e+00
2.079999999999999991e-06 4.125440075090936673e+26 2.986585464612547813e+00
2.089999999999999895e-06 4.108920260546800595e+26 2.986311368381570297e+00
2.100000000000000223e-06 4.092091923013033009e+26 2.986695151671772130e+00
2.110000000000000127e-06 4.076199443289626541e+26 2.986330973843132508e+00
2.120000000000000031e-06 4.060091463254404282e+26 2.986247768112257006e+00
2.129999999999999935e-06 4.044459212149018357e+26 2.986652500916691988e+00
2.139999999999999840e-06 4.029062111930752053e+26 2.986379779763451925e+00
2.150000000000000167e-06 4.013313013816119852e+26 2.986299184522498873e+00
2.160000000000000072e-06 3.997212874713004426e+26 2.986129601952037138e+00
2.169999999999999976e-06 3.982041498973172199e+26 2.986328459928980550e+00
2.179999999999999880e-06 3.966363324456358800e+26 2.986252085757904684e+00
2.190000000000000208e-06 3.950825676431725188e+26 2.986177516499010753e+00
2.200000000000000112e-06 3.936157727309965156e+26 2.985915374633937081e+00
2.210000000000000016e-06 3.921128647421758941e+26 2.985843971164030108e+00
2.219999999999999921e-06 3.905392340239729698e+26 2.986153549648225880e+00
2.230000000000000248e-06 3.891138886615857949e+26 2.985897914835693889e+00
2.240000000000000153e-06 3.876674999697449088e+26 2.985833008975332437e+00
2.250000000000000057e-06 3.862208449251699548e+26 2.985771869156701452e+00
2.259999999999999961e-06 3.848826504160574611e+26 2.985731456951457918e+00
2.269999999999999866e-06 3.834755941120060025e+26 2.985483575727937211e+00
2.280000000000000193e-06 3.820315156749235049e+26 2.985894347679561633e+00
2.290000000000000098e-06 3.806393767127336070e+26 2.985839126769225693e+00
2.300000000000000002e-06 3.792114439729858490e+26 2.985693826086757152e+00
2.309999999999999906e-06 3.778461205842146532e+26 2.985450388589571347e+00
2.320000000000000234e-06 3.764712252302078110e+26 2.985396071711328592e+00
2.330000000000000138e-06 3.751007648493878105e+26 2.985343184442897257e+00
2.340000000000000042e-06 3.736764731203648619e+26 2.985758982416795604e+00
2.349999999999999947e-06 3.723052858341599688e+26 2.985706214871318043e+00
2.359999999999999851e-06 3.709796003417132787e+26 2.985463919638678298e+00
2.370000000000000179e-06 3.696898597735075816e+26 2.985410388264426729e+00
2.380000000000000083e-06 3.683410961287892684e+26 2.985357692139124719e+00
2.389999999999999987e-06 3.670003492549879262e+26 2.985305180277080694e+00
2.399999999999999891e-06 3.657053992299352552e+26 2.985063600250198679e+00
2.410000000000000219e-06 3.643816680846987907e+26 2.985012089621990050e+00
2.420000000000000123e-06 3.630095627485071195e+26 2.985338816891887515e+00
2.430000000000000028e-06 3.617050697416184702e+26 2.985289091567822961e+00
2.439999999999999932e-06 3.604412131165459597e+26 2.985240714516645522e+00
2.450000000000000260e-06 3.592143670415186506e+26 2.985003502464368630e+00
2.460000000000000164e-06 3.579417018058732770e+26 2.984958188349503772e+00
2.470000000000000068e-06 3.566804604277357414e+26 2.984914669575469137e+00
2.479999999999999972e-06 3.554307748337269642e+26 2.984873046451621548e+00
2.489999999999999877e-06 3.541926377415744516e+26 2.984833365938313054e+00
2.500000000000000205e-06 3.530020310209750740e+26 2.984606310730363532e+00
2.510000000000000109e-06 3.517862558783719693e+26 2.984570501440782841e+00
2.520000000000000013e-06 3.505386458165203699e+26 2.985005903107689207e+00
2.529999999999999917e-06 3.493438358784023960e+26 2.984973501603071178e+00
2.540000000000000245e-06 3.481256340793681733e+26 2.984943180522373396e+00
2.550000000000000149e-06 3.469196910172904620e+26 2.984913152641063050e+00
2.560000000000000054e-06 3.457513150998857307e+26 2.984884129689919785e+00
2.569999999999999958e-06 3.444975595023031595e+26 2.984835887447222724e+00
2.579999999999999862e-06 3.433783655118071188e+26 2.984618687963158212e+00
2.590000000000000190e-06 3.421976368542565687e+26 2.984591703743971536e+00
2.600000000000000094e-06 3.410254001543332943e+26 2.984564056136514321e+00
2.609999999999999998e-06 3.398874750491265483e+26 2.984536493294467352e+00
2.619999999999999903e-06 3.387226595303685877e+26 2.984509486235844999e+00
2.630000000000000230e-06 3.375442742548931699e+26 2.984480665544312572e+00
2.640000000000000135e-06 3.363896897380461317e+26 2.984453529643930736e+00
2.650000000000000039e-06 3.352428899952247262e+26 2.984425796295020028e+00
