# z (um)	 Electron density (m^-3)
0.000000000000000000e+00 8.235768050699476877e+25 5.425052080682180033e+00
1.000000000000000021e-08 8.222653621300638370e+25 5.425282188626558089e+00
2.000000000000000042e-08 8.209571591319464209e+25 5.425512891490509304e+00
3.000000000000000394e-08 8.195914131840308786e+25 5.425108115397135222e+00
4.000000000000000084e-08 8.182916807599659567e+25 5.425260001868354998e+00
4.999999999999999774e-08 8.169326467285857792e+25 5.424856353507991891e+00
6.000000000000000787e-08 8.156375382265820808e+25 5.425089790213237784e+00
7.000000000000000477e-08 8.143454639294938240e+25 5.425323824819150431e+00
8.000000000000000167e-08 8.129986038534397923e+25 5.424835260139110105e+00
8.999999999999999857e-08 8.117129122456207763e+25 5.425070654362710521e+00
9.999999999999999547e-08 8.103703576450752445e+25 5.424670264943597608e+00
1.100000000000000056e-07 8.090910021673808918e+25 5.424907058779819380e+00
1.200000000000000157e-07 8.078167205093069332e+25 5.425064132676518547e+00
1.299999999999999994e-07 8.064838829863814907e+25 5.424665688001374164e+00
1.400000000000000095e-07 8.052139216791763610e+25 5.424904460451887900e+00
1.499999999999999932e-07 8.038875548396162907e+25 5.424507362411518763e+00
1.600000000000000033e-07 8.026260765268900846e+25 5.424660363586526479e+00
1.700000000000000135e-07 8.013061318013923836e+25 5.424264419296485507e+00
1.799999999999999971e-07 8.000485621552892570e+25 5.424505961041806934e+00
1.900000000000000073e-07 7.987940353429365418e+25 5.424748109287620856e+00
1.999999999999999909e-07 7.974856306539103044e+25 5.424273649011702503e+00
2.100000000000000011e-07 7.962372078810504009e+25 5.424517144353401044e+00
2.200000000000000112e-07 7.949330236587992364e+25 5.424124458350301659e+00
2.299999999999999949e-07 7.936906540478852114e+25 5.424369320357105728e+00
2.400000000000000315e-07 7.924535079141944338e+25 5.424527445607948195e+00
2.499999999999999887e-07 7.911586004118999901e+25 5.424136634262095136e+00
2.599999999999999988e-07 7.899251989266156144e+25 5.424383391695124068e+00
2.700000000000000090e-07 7.886383865991242004e+25 5.423913094487905262e+00
2.800000000000000191e-07 7.874109209529932592e+25 5.424161149293492912e+00
2.900000000000000292e-07 7.861283203440171185e+25 5.423772719099616779e+00
2.999999999999999864e-07 7.849067487845886138e+25 5.424022103337002854e+00
3.099999999999999966e-07 7.836899962967882752e+25 5.424191283852354495e+00
3.200000000000000067e-07 7.824167502072091511e+25 5.423798016806670397e+00
3.300000000000000168e-07 7.812039334295224789e+25 5.424049272999797999e+00
3.400000000000000270e-07 7.799365609658655210e+25 5.423663975224267908e+00
3.499999999999999842e-07 7.787314594617473508e+25 5.423835607552332405e+00
3.599999999999999943e-07 7.775273259920926125e+25 5.424088747250340958e+00
3.700000000000000044e-07 7.762687333873470056e+25 5.423705306325608433e+00
3.800000000000000146e-07 7.750722655982021461e+25 5.423878853500580632e+00
3.900000000000000247e-07 7.738196378474500049e+25 5.423496515707233456e+00
3.999999999999999819e-07 7.726273190327199398e+25 5.423745636244643897e+00
4.099999999999999920e-07 7.713806208275052512e+25 5.423364618543279114e+00
4.200000000000000022e-07 7.701955993949301134e+25 5.423540638329631847e+00
4.300000000000000123e-07 7.690115137970054348e+25 5.423798326126792801e+00
4.400000000000000224e-07 7.677735890248036134e+25 5.423419174016838262e+00
4.500000000000000326e-07 7.665970593419603505e+25 5.423597106323044592e+00
4.599999999999999898e-07 7.653650002746023052e+25 5.423219052280268571e+00
4.699999999999999999e-07 7.641926817746863962e+25 5.423472705902330659e+00
4.800000000000000630e-07 7.629664549670050399e+25 5.423095956789441452e+00
4.899999999999999672e-07 7.618011875239280261e+25 5.423276307633550175e+00
4.999999999999999774e-07 7.606368254135179330e+25 5.423538476012094378e+00
5.099999999999999875e-07 7.594192280794680069e+25 5.423163537797780265e+00
5.199999999999999976e-07 7.582623154043578414e+25 5.423345734410788488e+00
5.300000000000000078e-07 7.570504855188987301e+25 5.422971851796969389e+00
5.400000000000000179e-07 7.558975534959661955e+25 5.423229913931940871e+00
5.500000000000000281e-07 7.546933172147167104e+25 5.422775874618282366e+00
5.600000000000000382e-07 7.535456182308217318e+25 5.423041823399227468e+00
5.700000000000000483e-07 7.523452324266983280e+25 5.422670261680124781e+00
5.800000000000000585e-07 7.512030374951693478e+25 5.422937491392206155e+00
5.899999999999999627e-07 7.500654196758455990e+25 5.423123832016779389e+00
5.999999999999999728e-07 7.488736339349586166e+25 5.422754035127835159e+00
6.099999999999999830e-07 7.477399306928390392e+25 5.423016433060133146e+00
6.199999999999999931e-07 7.465555034774136237e+25 5.422566306632939259e+00
6.300000000000000033e-07 7.454269696105390389e+25 5.422836579548627967e+00
6.400000000000000134e-07 7.442463344224799718e+25 5.422469128894987556e+00
6.500000000000000235e-07 7.431250785220277929e+25 5.422659085725890726e+00
6.600000000000000337e-07 7.420046764618834023e+25 5.422931166939401137e+00
6.700000000000000438e-07 7.408323920628170009e+25 5.422565499886115248e+00
6.800000000000000539e-07 7.397176848223550709e+25 5.422832245703204990e+00
6.900000000000000641e-07 7.385528184585519642e+25 5.422386042245186388e+00
6.999999999999999683e-07 7.374432143670553669e+25 5.422660639678148264e+00
7.099999999999999785e-07 7.362820733744944986e+25 5.422297305992177741e+00
7.199999999999999886e-07 7.351796569114132909e+25 5.422491367407332952e+00
7.299999999999999987e-07 7.340241950893484066e+25 5.422129070249647853e+00
7.400000000000000089e-07 7.329252860434411771e+25 5.422406166727221866e+00
7.500000000000000190e-07 7.317772816105413600e+25 5.421956573657484846e+00
7.600000000000000291e-07 7.306836825584937788e+25 5.422234896001715043e+00
7.700000000000000393e-07 7.295927128640801099e+25 5.422513766348981967e+00
7.800000000000000494e-07 7.284525678061154941e+25 5.422072523462289517e+00
7.900000000000000595e-07 7.273668748585845354e+25 5.422352593264315068e+00
7.999999999999999638e-07 7.262303571667294921e+25 5.421994351346332230e+00
8.099999999999999739e-07 7.251519920070575765e+25 5.422187094552235465e+00
8.199999999999999841e-07 7.240208864491668807e+25 5.421829866609149562e+00
8.299999999999999942e-07 7.229456595463985807e+25 5.422112354423133773e+00
8.400000000000000043e-07 7.218217400842262274e+25 5.421674205451382456e+00
8.500000000000000145e-07 7.207518537204804819e+25 5.421957857096295186e+00
8.600000000000000246e-07 7.196314898490356563e+25 5.421602884862331884e+00
8.700000000000000347e-07 7.185684263938799056e+25 5.421805615595307160e+00
8.800000000000000449e-07 7.175063955304912310e+25 5.422084439803136924e+00
8.900000000000000550e-07 7.163939639454872984e+25 5.421731172069971016e+00
9.000000000000000652e-07 7.153386002120147688e+25 5.421935616474964803e+00
9.099999999999999694e-07 7.142314758643029213e+25 5.421583355353724265e+00
9.199999999999999795e-07 7.131794424585334441e+25 5.421871136422169002e+00
9.299999999999999897e-07 7.120793823899335213e+25 5.421437763832522627e+00
9.399999999999999998e-07 7.110327080891741858e+25 5.421720177620830583e+00
9.500000000000000100e-07 7.099361178692952974e+25 5.421370176605658564e+00
9.600000000000001260e-07 7.088960346344301119e+25 5.421577994173153670e+00
9.700000000000000302e-07 7.078048255905197210e+25 5.421228984155265884e+00
9.799999999999999345e-07 7.067680150392648286e+25 5.421520336598560696e+00
9.900000000000000505e-07 7.056836432458529012e+25 5.421090038673906264e+00
9.999999999999999547e-07 7.046518633129443689e+25 5.421382561452571913e+00
1.010000000000000071e-06 7.036228329747611414e+25 5.421669095548350192e+00
1.019999999999999975e-06 7.025461624803100400e+25 5.421240479366189469e+00
1.030000000000000091e-06 7.015218733706985166e+25 5.421534682886171019e+00
1.039999999999999995e-06 7.004485837624130277e+25 5.421189620880710436e+00
1.050000000000000111e-06 6.994310260182057504e+25 5.421402430866106847e+00
1.060000000000000016e-06 6.983628553293256977e+25 5.421058343394837387e+00
1.069999999999999920e-06 6.973487248274120348e+25 5.421348364657918140e+00
1.080000000000000036e-06 6.962873978192409045e+25 5.420922711601903643e+00
1.089999999999999940e-06 6.952780712948072971e+25 5.421220330608127469e+00
1.100000000000000056e-06 6.942200435251316888e+25 5.420878432967442428e+00
1.109999999999999960e-06 6.932172071402737225e+25 5.421094448505536789e+00
1.120000000000000076e-06 6.921642130954482776e+25 5.420753521977816902e+00
1.129999999999999981e-06 6.911647301550179303e+25 5.421046990716168246e+00
1.140000000000000097e-06 6.901184934121551896e+25 5.420624284135371340e+00
1.150000000000000001e-06 6.891236024153639683e+25 5.420925357972224745e+00
1.160000000000000117e-06 6.881311110535454982e+25 5.421226942171720964e+00
1.170000000000000021e-06 6.870922840391515957e+25 5.420805865731292528e+00
1.179999999999999925e-06 6.861046055557716094e+25 5.421108569653546816e+00
1.190000000000000041e-06 6.850709739377539601e+25 5.420682054093063584e+00
1.199999999999999946e-06 6.840882306332734841e+25 5.420985852007128791e+00
1.210000000000000062e-06 6.830575507635696078e+25 5.420649742187614528e+00
1.219999999999999966e-06 6.820811560453548531e+25 5.420871716402703377e+00
1.230000000000000082e-06 6.810553841717188776e+25 5.420536564655671796e+00
1.239999999999999986e-06 6.800819961526206735e+25 5.420842644698472768e+00
1.250000000000000102e-06 6.790630702757397025e+25 5.420419051987096282e+00
1.260000000000000007e-06 6.780943967371448974e+25 5.420726229225656390e+00
1.270000000000000123e-06 6.770783598605791081e+25 5.420393235697386736e+00
1.280000000000000027e-06 6.761161020719647939e+25 5.420618294349437427e+00
1.289999999999999931e-06 6.751048983880123142e+25 5.420286238344442786e+00
1.300000000000000047e-06 6.741473024196293335e+25 5.420512403971979865e+00
1.309999999999999951e-06 6.731412878483543762e+25 5.420174861068836059e+00
1.320000000000000067e-06 6.721866180071291798e+25 5.420485324405847294e+00
1.329999999999999972e-06 6.711867187760792692e+25 5.420071948952341678e+00
1.340000000000000088e-06 6.702366706986906223e+25 5.420383479989577147e+00
1.349999999999999992e-06 6.692398152767735574e+25 5.420054487907163043e+00
1.360000000000000108e-06 6.682960756342164679e+25 5.420283663991553702e+00
1.370000000000000012e-06 6.673041834103602129e+25 5.419949245636829005e+00
1.380000000000000128e-06 6.663633073246912414e+25 5.420262975601724875e+00
1.390000000000000032e-06 6.653776024925039355e+25 5.419852412731973601e+00
1.399999999999999937e-06 6.644412777091710747e+25 5.420167215383543180e+00
1.410000000000000053e-06 6.634602534876860270e+25 5.419757622684334031e+00
1.419999999999999957e-06 6.625286040169935344e+25 5.420073466614382163e+00
1.430000000000000073e-06 6.615507604780802403e+25 5.419742177577194120e+00
1.439999999999999977e-06 6.606251625626213218e+25 5.419975479997169110e+00
1.450000000000000093e-06 6.596517321393707902e+25 5.419651469058517357e+00
1.459999999999999997e-06 6.587289158637439670e+25 5.419969557306409058e+00
1.470000000000000113e-06 6.577617882476664535e+25 5.419562799738762315e+00
1.480000000000000018e-06 6.568436451561557105e+25 5.419875651983770304e+00
1.490000000000000134e-06 6.559291768690891453e+25 5.420111572946286316e+00
1.500000000000000038e-06 6.549671689475403815e+25 5.419790066222487823e+00
1.509999999999999942e-06 6.540554338043929046e+25 5.420110739633337005e+00
1.520000000000000058e-06 6.530998004253487195e+25 5.419706405164792962e+00
1.529999999999999963e-06 6.521924535877181871e+25 5.420028095574497939e+00
1.540000000000000079e-06 6.512413943943760492e+25 5.419618444028880155e+00
1.549999999999999983e-06 6.503384064822801159e+25 5.419941148614109139e+00
1.560000000000000099e-06 6.493899400509719027e+25 5.419622589133530788e+00
1.570000000000000003e-06 6.484929592765389965e+25 5.419862370215455805e+00
1.580000000000000119e-06 6.475489536022227367e+25 5.419544684255992451e+00
1.590000000000000023e-06 6.466546088867974773e+25 5.419869434908079597e+00
1.599999999999999928e-06 6.457169182108643591e+25 5.419462442682153380e+00
1.610000000000000044e-06 6.448268631981290291e+25 5.419788200377857912e+00
1.619999999999999948e-06 6.438935258170747706e+25 5.419388307531154858e+00
1.630000000000000064e-06 6.430077442632279501e+25 5.419715067921827334e+00
1.639999999999999968e-06 6.420769923216699414e+25 5.419400315501763821e+00
1.650000000000000084e-06 6.411973344156824619e+25 5.419637698286828176e+00
1.659999999999999988e-06 6.402709664434015276e+25 5.419323850132965248e+00
1.670000000000000104e-06 6.393953393053461900e+25 5.419568474260283431e+00
1.680000000000000009e-06 6.384733388434707663e+25 5.419255526758878005e+00
1.690000000000000125e-06 6.376002775299896549e+25 5.419585392666689039e+00
1.700000000000000029e-06 6.366842757155145120e+25 5.419189135318200456e+00
1.709999999999999933e-06 6.358156153813870605e+25 5.419513853257903691e+00
1.720000000000000049e-06 6.349040796851185307e+25 5.419118473372663836e+00
1.729999999999999953e-06 6.340393976933698298e+25 5.419450358514662724e+00
1.740000000000000069e-06 6.331303586267292461e+25 5.419140379587641831e+00
1.749999999999999974e-06 6.322251583334632217e+25 5.418746219595401037e+00
1.760000000000000090e-06 6.313668931065705295e+25 5.419073571121700184e+00
1.769999999999999994e-06 6.304659381000643932e+25 5.418680314745701665e+00
1.780000000000000110e-06 6.296115864385838836e+25 5.419014786816963358e+00
1.790000000000000014e-06 6.287132122695259026e+25 5.418707132161550533e+00
1.800000000000000130e-06 6.278645853168084778e+25 5.418957864570666416e+00
1.810000000000000035e-06 6.269704118057993316e+25 5.418651074119052780e+00
1.819999999999999939e-06 6.261261774935961014e+25 5.418896661282433413e+00
1.830000000000000055e-06 6.252361779694014431e+25 5.418590737448239381e+00
1.839999999999999959e-06 6.243956339689800132e+25 5.418843437309726063e+00
1.850000000000000075e-06 6.235097846776532266e+25 5.418538366779136695e+00
1.859999999999999979e-06 6.226716204504465446e+25 5.418876765483076952e+00
1.870000000000000095e-06 6.217917074059972725e+25 5.418481764539139434e+00
1.880000000000000000e-06 6.209575298030652710e+25 5.418821126081828865e+00
1.890000000000000116e-06 6.200815279179613890e+25 5.418433045393467928e+00
1.900000000000000020e-06 6.192513159096840697e+25 5.418773355381876655e+00
1.909999999999999924e-06 6.183779173597422941e+25 5.418471090533766521e+00
1.920000000000000252e-06 6.175532701389021737e+25 5.418727346517162147e+00
1.930000000000000156e-06 6.166839594253892444e+25 5.418419975137312328e+00
1.940000000000000060e-06 6.158632301554588682e+25 5.418677201703760105e+00
1.949999999999999965e-06 6.149977761058131526e+25 5.418376689302603744e+00
1.959999999999999869e-06 6.141793341672838428e+25 5.418719910922384919e+00
1.970000000000000197e-06 6.133195082164995815e+25 5.418335202183730104e+00
1.980000000000000101e-06 6.125051252957672802e+25 5.418673399239570365e+00
1.990000000000000005e-06 6.116492886639389069e+25 5.418289551714149610e+00
1.999999999999999909e-06 6.108387423341338203e+25 5.418634607497491373e+00
2.010000000000000237e-06 6.099868743291871974e+25 5.418251605605481025e+00
2.020000000000000142e-06 6.091800193173855850e+25 5.418597633429371285e+00
2.030000000000000046e-06 6.083304941612865173e+25 5.418300783421119426e+00
2.039999999999999950e-06 6.075292298093778316e+25 5.418556502481382431e+00
2.049999999999999854e-06 6.066836295624999853e+25 5.418260485154162254e+00
2.060000000000000182e-06 6.058859845124030180e+25 5.418523046950234345e+00
2.070000000000000086e-06 6.050442860178430948e+25 5.418227847374865291e+00
2.079999999999999991e-06 6.042061731194138127e+25 5.417847602431940857e+00
2.089999999999999895e-06 6.034128977946652514e+25 5.418191022907199006e+00
2.100000000000000223e-06 6.025770488974359301e+25 5.417897217884843464e+00
2.110000000000000127e-06 6.017887876531673227e+25 5.418161890493645494e+00
2.120000000000000031e-06 6.009567833910141762e+25 5.417868913051337110e+00
2.129999999999999935e-06 6.001722361550231284e+25 5.418134505271758883e+00
2.139999999999999840e-06 5.993442184297430227e+25 5.417836523114132774e+00
2.150000000000000167e-06 5.985633657133365997e+25 5.418103046963051561e+00
2.160000000000000072e-06 5.977389914076516445e+25 5.417811734160534520e+00
2.169999999999999976e-06 5.969602334472154238e+25 5.418164816475679935e+00
2.179999999999999880e-06 5.961413741708945111e+25 5.417788622534803089e+00
2.190000000000000208e-06 5.953664312706490809e+25 5.418136811914044948e+00
2.200000000000000112e-06 5.945511769047978903e+25 5.417761493146638685e+00
2.210000000000000016e-06 5.937797116203153737e+25 5.418116369854925729e+00
2.219999999999999921e-06 5.929681895295822808e+25 5.417741853632344728e+00
2.230000000000000248e-06 5.922003353518204495e+25 5.418097602807098845e+00
2.240000000000000153e-06 5.913925200018660448e+25 5.417723878965196249e+00
2.250000000000000057e-06 5.905851778057702179e+25 5.417430610414804448e+00
2.259999999999999961e-06 5.898226964938950597e+25 5.417787791223616090e+00
2.269999999999999866e-06 5.890205933770829435e+25 5.417415059132280497e+00
2.280000000000000193e-06 5.882616635871684825e+25 5.417773108084310785e+00
2.290000000000000098e-06 5.874630586010525594e+25 5.417401222869997923e+00
2.300000000000000002e-06 5.867078088066317919e+25 5.417754454348655990e+00
2.309999999999999906e-06 5.859128325565108438e+25 5.417383377201146821e+00
2.320000000000000234e-06 5.851609503091769865e+25 5.417743180331072494e+00
2.330000000000000138e-06 5.843695852426351636e+25 5.417372898807236936e+00
2.340000000000000042e-06 5.836211995016493721e+25 5.417733567627151636e+00
2.349999999999999947e-06 5.828321615571406158e+25 5.417444649424608905e+00
2.359999999999999851e-06 5.820888082361407513e+25 5.417719929777526922e+00
2.370000000000000179e-06 5.813030503111514845e+25 5.417437504727323550e+00
2.380000000000000083e-06 5.805631485122390420e+25 5.417713638192442893e+00
2.389999999999999987e-06 5.797809425301274895e+25 5.417431994426387121e+00
2.399999999999999891e-06 5.790022375526118433e+25 5.417058723925022967e+00
2.410000000000000219e-06 5.782659265511878228e+25 5.417422534104878729e+00
2.420000000000000123e-06 5.774905946304727561e+25 5.417055653121686909e+00
2.430000000000000028e-06 5.767578350504391659e+25 5.417420259482076617e+00
2.439999999999999932e-06 5.759859954708908779e+25 5.417054155943539229e+00
2.450000000000000260e-06 5.752564660614044175e+25 5.417419657622469131e+00
2.460000000000000164e-06 5.744866885970378139e+25 5.417135395076547510e+00
2.470000000000000068e-06 5.737620608952980221e+25 5.417415148622630738e+00
2.479999999999999972e-06 5.729956048282937418e+25 5.417137197824549055e+00
2.489999999999999877e-06 5.722743129076921691e+25 5.417417774957567822e+00
2.500000000000000205e-06 5.715112891741919273e+25 5.417140584947353510e+00
2.510000000000000109e-06 5.707518315474300851e+25 5.416771478749041968e+00
2.520000000000000013e-06 5.700339707329237548e+25 5.417140034017435823e+00
2.529999999999999917e-06 5.692776261451459800e+25 5.416777234308934652e+00
2.540000000000000245e-06 5.685630503681731843e+25 5.417146613406399247e+00
2.550000000000000149e-06 5.678100795079879328e+25 5.416784570913312002e+00
2.560000000000000054e-06 5.670988930345985312e+25 5.417149343309854537e+00
2.569999999999999958e-06 5.663492747805509856e+25 5.416788069081621693e+00
2.579999999999999862e-06 5.656412104173940354e+25 5.417159105867406232e+00
2.590000000000000190e-06 5.648950760502632218e+25 5.416798530632356723e+00
2.600000000000000094e-06 5.641902365507592546e+25 5.417170379510411138e+00
2.609999999999999998e-06 5.634458596410190082e+25 5.416892196846770702e+00
2.619999999999999903e-06 5.627045764710273441e+25 5.416532657496068381e+00
2.630000000000000230e-06 5.620045334750944456e+25 5.416905860580468968e+00
2.640000000000000135e-06 5.612665253654864722e+25 5.416547068344960358e+00
2.650000000000000039e-06 5.605696528278337879e+25 5.416921080445277425e+00
