# z (um)	 Electron density (m^-3)
0.000000000000000000e+00 6.669995914675879869e+25 3.180757521774514540e+00
1.000000000000000021e-08 6.663406626108251490e+25 3.180818758317005113e+00
2.000000000000000042e-08 6.657416630757145906e+25 3.180769438462283993e+00
3.000000000000000394e-08 6.651318471160793296e+25 3.180814652284526201e+00
4.000000000000000084e-08 6.644883457198400297e+25 3.180781153784667303e+00
4.999999999999999774e-08 6.638808031689379718e+25 3.180826264563559658e+00
6.000000000000000787e-08 6.633299787481156978e+25 3.180684528295688374e+00
7.000000000000000477e-08 6.626343632554446658e+25 3.180837680797343747e+00
8.000000000000000167e-08 6.620857078508058920e+25 3.180695850995691742e+00
8.999999999999999857e-08 6.614390185440371541e+25 3.180832802000027382e+00
9.999999999999999547e-08 6.607909224170241405e+25 3.180893202090671057e+00
1.100000000000000056e-07 6.602018967568698024e+25 3.180843856678121639e+00
1.200000000000000157e-07 6.596023188268226213e+25 3.180887937186176462e+00
1.299999999999999994e-07 6.589691753429755801e+25 3.180854724063050920e+00
1.400000000000000095e-07 6.583718578012343403e+25 3.180898718453872398e+00
1.499999999999999932e-07 6.577844855108924067e+25 3.180772371429833267e+00
1.600000000000000033e-07 6.571459416377981957e+25 3.180909322328757227e+00
1.700000000000000135e-07 6.566069356225505363e+25 3.180766589837261904e+00
1.799999999999999971e-07 6.559245387201085266e+25 3.180919752074723217e+00
1.900000000000000073e-07 6.553876453982580099e+25 3.180776942816639252e+00
1.999999999999999909e-07 6.547536403970225694e+25 3.180913622958082332e+00
2.100000000000000011e-07 6.541730050906045040e+25 3.180787120969391868e+00
2.200000000000000112e-07 6.535412675536349995e+25 3.180923723839807149e+00
2.299999999999999949e-07 6.530084970700018053e+25 3.180780641599745717e+00
2.400000000000000315e-07 6.523331033055166876e+25 3.180933645587127323e+00
2.499999999999999887e-07 6.517478866524731936e+25 3.180976525217972029e+00
2.599999999999999988e-07 6.512181963438296205e+25 3.180832937717759101e+00
2.700000000000000090e-07 6.505462174703605753e+25 3.180986195696235974e+00
2.800000000000000191e-07 6.500185566447382426e+25 3.180842536456729430e+00
2.900000000000000292e-07 6.493488529940698848e+25 3.180995688806446786e+00
2.999999999999999864e-07 6.488231985282870002e+25 3.180851958545811264e+00
3.099999999999999966e-07 6.482013277101028252e+25 3.180988351322496133e+00
3.200000000000000067e-07 6.476322913923529987e+25 3.180861202902578899e+00
3.300000000000000168e-07 6.470126026193854115e+25 3.180997512568013885e+00
3.400000000000000270e-07 6.464909066121758329e+25 3.180853524060990534e+00
3.499999999999999842e-07 6.458708074001677470e+25 3.180911857259370201e+00
3.599999999999999943e-07 6.453082595325899083e+25 3.180862443538076345e+00
3.700000000000000044e-07 6.447356677735387613e+25 3.180903848626504882e+00
3.800000000000000146e-07 6.441298821921014622e+25 3.180871192639286527e+00
3.900000000000000247e-07 6.435593935537648202e+25 3.180912541855572151e+00
3.999999999999999819e-07 6.429472555791536279e+25 3.181048723714719362e+00
4.099999999999999920e-07 6.423873820582008223e+25 3.180921067214248055e+00
4.200000000000000022e-07 6.418200964868591274e+25 3.180961778529923123e+00
4.300000000000000123e-07 6.412648859479573185e+25 3.180912400986704913e+00
4.400000000000000224e-07 6.406545997502319083e+25 3.180970091597336236e+00
4.500000000000000326e-07 6.401012645459975115e+25 3.180920626700338261e+00
4.599999999999999898e-07 6.394931092312054388e+25 3.180978242913219844e+00
4.699999999999999999e-07 6.389418047961822586e+25 3.180928689055228187e+00
4.800000000000000630e-07 6.383806423510039711e+25 3.180969138833750431e+00
4.899999999999999672e-07 6.377864598867306489e+25 3.180936587410589933e+00
4.999999999999999774e-07 6.372273070810871625e+25 3.180976994337962438e+00
5.099999999999999875e-07 6.366692100085237488e+25 3.181016826131565001e+00
5.199999999999999976e-07 6.360780277327032767e+25 3.180984690046309460e+00
5.300000000000000078e-07 6.355219133482047823e+25 3.181024484657710261e+00
5.400000000000000179e-07 6.349776038401971420e+25 3.180974957718565310e+00
5.500000000000000281e-07 6.343788108665288630e+25 3.181031986097197173e+00
5.600000000000000382e-07 6.338362721493894253e+25 3.180982366289917262e+00
5.700000000000000483e-07 6.332840406340317471e+25 3.181021967929245520e+00
5.800000000000000585e-07 6.327411282094224741e+25 3.180892938708220985e+00
5.899999999999999627e-07 6.321486458820614927e+25 3.181029186610966342e+00
5.999999999999999728e-07 6.316520833474825161e+25 3.180882639584265092e+00
6.099999999999999830e-07 6.310172239595447148e+25 3.181036250666909204e+00
6.199999999999999931e-07 6.304699334995613036e+25 3.181075226003329703e+00
6.300000000000000033e-07 6.299340639372455256e+25 3.181025624821642417e+00
6.400000000000000134e-07 6.293444313479157905e+25 3.181082105586426678e+00
6.500000000000000235e-07 6.288525244313773304e+25 3.180935085310836907e+00
6.600000000000000337e-07 6.282672534514780519e+25 3.181071208038018572e+00
6.700000000000000438e-07 6.277330276391321832e+25 3.180941775705180330e+00
6.800000000000000539e-07 6.271496008830188353e+25 3.181077811168782521e+00
6.900000000000000641e-07 6.266613591096380285e+25 3.180930606314146036e+00
6.999999999999999683e-07 6.260358865219099498e+25 3.181084258385782348e+00
7.099999999999999785e-07 6.255494823216059758e+25 3.180937020155022665e+00
7.199999999999999886e-07 6.249679015565375994e+25 3.180992621554186162e+00
7.299999999999999987e-07 6.243894349962883187e+25 3.181128730996915621e+00
7.400000000000000089e-07 6.239057476168852067e+25 3.180981075099110544e+00
7.500000000000000190e-07 6.232853719113084491e+25 3.181134856146861090e+00
7.600000000000000291e-07 6.228034739876201071e+25 3.180987173558952108e+00
7.700000000000000393e-07 6.222290641643615300e+25 3.181122990701532594e+00
7.800000000000000494e-07 6.217051818154266038e+25 3.180993124245556913e+00
7.900000000000000595e-07 6.211741634064212084e+25 3.181030344699196988e+00
7.999999999999999638e-07 6.206541301213652288e+25 3.180981009859496389e+00
8.099999999999999739e-07 6.200813065347201150e+25 3.181036146587460145e+00
8.199999999999999841e-07 6.195114985031285868e+25 3.181172045318902075e+00
8.299999999999999942e-07 6.190357264881572278e+25 3.181023803086740820e+00
8.400000000000000043e-07 6.184242960503003680e+25 3.181177619899440590e+00
8.500000000000000145e-07 6.179502642784543185e+25 3.181029360795470939e+00
8.600000000000000246e-07 6.174256708353343582e+25 3.181065910942355579e+00
8.700000000000000347e-07 6.168685150704439405e+25 3.181034781134935763e+00
8.800000000000000449e-07 6.163459206531688425e+25 3.181071334600430234e+00
8.900000000000000550e-07 6.158339615467236248e+25 3.181021902396978795e+00
9.000000000000000652e-07 6.152696902605586841e+25 3.181076621796859349e+00
9.099999999999999694e-07 6.147496891996189215e+25 3.181112642335571561e+00
9.199999999999999795e-07 6.142403512556616934e+25 3.181063528227886739e+00
9.299999999999999897e-07 6.136789569181199580e+25 3.181117800101443738e+00
9.399999999999999998e-07 6.131714246869114564e+25 3.181068578020849191e+00
9.500000000000000100e-07 6.126549864296508917e+25 3.181104494354855206e+00
9.600000000000001260e-07 6.121061615586394755e+25 3.181073486591019517e+00
9.700000000000000302e-07 6.115915123245371306e+25 3.181109410293729844e+00
9.799999999999999345e-07 6.111286433164096050e+25 3.180959743716591070e+00
9.900000000000000505e-07 6.105318481519212530e+25 3.181114186222190110e+00
9.999999999999999547e-07 6.100199129532857318e+25 3.181149590107509972e+00
1.010000000000000071e-06 6.095184783088970758e+25 3.181100347735564160e+00
1.019999999999999975e-06 6.089654297321350457e+25 3.181154239839053322e+00
1.030000000000000091e-06 6.085067575743585961e+25 3.181004195689655756e+00
1.039999999999999995e-06 6.079572674618914622e+25 3.181140199994417106e+00
1.050000000000000111e-06 6.074574883930722877e+25 3.181008708612806934e+00
1.060000000000000016e-06 6.069098116124576725e+25 3.181144619532476625e+00
1.069999999999999920e-06 6.064543938270407584e+25 3.180994462778611087e+00
1.080000000000000036e-06 6.058658626617880930e+25 3.181148906035911494e+00
1.089999999999999940e-06 6.053617295954561725e+25 3.181183740347517830e+00
1.100000000000000056e-06 6.049089314096030800e+25 3.181033227519418638e+00
1.109999999999999960e-06 6.043231435262544475e+25 3.181187922337759488e+00
1.120000000000000076e-06 6.038717862952301308e+25 3.181037417260252020e+00
1.129999999999999981e-06 6.033302809084666451e+25 3.181173205226365042e+00
1.140000000000000097e-06 6.028381010746257938e+25 3.181041484098974248e+00
1.150000000000000001e-06 6.023390690082434573e+25 3.181075505214440824e+00
1.160000000000000117e-06 6.018502021968972170e+25 3.181026585042382671e+00
1.170000000000000021e-06 6.013105259911013067e+25 3.181079486343423746e+00
1.179999999999999925e-06 6.007734121419224528e+25 3.181215361425799859e+00
1.190000000000000041e-06 6.003276545709262130e+25 3.181064427461989474e+00
1.199999999999999946e-06 5.997500818885550925e+25 3.181219128297496646e+00
1.210000000000000062e-06 5.993059261583708999e+25 3.181068207130823389e+00
1.219999999999999966e-06 5.988129711014273358e+25 3.181101709295901969e+00
1.230000000000000082e-06 5.982877975551878703e+25 3.181071864509405600e+00
1.239999999999999986e-06 5.977963361268023107e+25 3.181105405958402521e+00
1.250000000000000102e-06 5.972652910691884563e+25 3.181241156158063355e+00
1.260000000000000007e-06 5.967830972365730127e+25 3.181108979647164325e+00
1.270000000000000123e-06 5.962941697219253590e+25 3.181142055151983783e+00
1.280000000000000027e-06 5.958151420632289117e+25 3.181093301310937704e+00
1.289999999999999931e-06 5.952859420486767370e+25 3.181145549102252446e+00
1.300000000000000047e-06 5.948085575892011310e+25 3.181096672176342732e+00
1.309999999999999951e-06 5.943228534390129068e+25 3.181129719857690219e+00
1.320000000000000067e-06 5.937962385632005227e+25 3.181181581597170016e+00
1.329999999999999972e-06 5.933213702514700172e+25 3.181133013641430196e+00
1.340000000000000088e-06 5.928381278223685246e+25 3.181165608870578421e+00
1.349999999999999992e-06 5.923229891756217281e+25 3.181136188052688940e+00
1.360000000000000108e-06 5.918413392407311401e+25 3.181168832991935425e+00
1.370000000000000012e-06 5.914096009714298804e+25 3.181016420722321936e+00
1.380000000000000128e-06 5.908477974299457222e+25 3.181171941909920697e+00
1.390000000000000032e-06 5.904175662822674292e+25 3.181019558468887176e+00
1.399999999999999937e-06 5.898989890659980135e+25 3.181155537351343821e+00
1.410000000000000053e-06 5.893798391317648996e+25 3.181207199365223115e+00
1.419999999999999957e-06 5.889518607723845239e+25 3.181054512844913695e+00
1.430000000000000073e-06 5.884357271779913842e+25 3.181190674733719970e+00
1.439999999999999977e-06 5.879680223220814944e+25 3.181057492055092251e+00
1.450000000000000093e-06 5.874535467728089699e+25 3.181193557623644974e+00
1.459999999999999997e-06 5.870285273674223141e+25 3.181040833250576849e+00
1.470000000000000113e-06 5.865143025949844180e+25 3.181091931656819582e+00
1.480000000000000018e-06 5.860022624234946520e+25 3.181228181995044757e+00
1.490000000000000134e-06 5.855794842604088841e+25 3.181075167420361893e+00
1.500000000000000038e-06 5.850278926766705228e+25 3.181230918504196925e+00
1.509999999999999942e-06 5.846066011986620619e+25 3.181077942160380534e+00
1.520000000000000058e-06 5.841375862592282290e+25 3.181109047598122075e+00
1.529999999999999963e-06 5.836368991093336342e+25 3.181080611311094319e+00
1.540000000000000079e-06 5.831694291177450461e+25 3.181111786998458424e+00
1.549999999999999983e-06 5.826632032470170497e+25 3.181247915157290773e+00
1.560000000000000099e-06 5.822045902456005356e+25 3.181114419697539830e+00
1.570000000000000003e-06 5.817394616073833293e+25 3.181145186357606125e+00
1.580000000000000119e-06 5.812836008723348653e+25 3.181097161100851611e+00
1.590000000000000023e-06 5.807790831481591383e+25 3.181147786703507396e+00
1.599999999999999928e-06 5.803247446295927404e+25 3.181099628910655230e+00
1.610000000000000044e-06 5.798625874669870027e+25 3.181130432826198451e+00
1.619999999999999948e-06 5.793604586148413975e+25 3.181180722262503924e+00
1.630000000000000064e-06 5.789082854573151448e+25 3.181132872516073906e+00
1.639999999999999968e-06 5.784484032091945786e+25 3.181163281652521935e+00
1.650000000000000084e-06 5.779570202166530875e+25 3.181135211085468040e+00
1.659999999999999988e-06 5.774987821736283467e+25 3.181165701354379927e+00
1.670000000000000104e-06 5.770889613688102686e+25 3.181011477519910091e+00
1.680000000000000009e-06 5.765925816134588549e+25 3.181147948256137781e+00
1.690000000000000125e-06 5.760958650726084646e+25 3.181198130435848981e+00
1.700000000000000029e-06 5.756487826289389413e+25 3.181150223772890140e+00
1.709999999999999933e-06 5.751940659342203919e+25 3.181180307028004250e+00
1.720000000000000049e-06 5.747472833492212927e+25 3.181046017484109978e+00
1.729999999999999953e-06 5.742547488651781134e+25 3.181182576933590411e+00
1.740000000000000069e-06 5.738022755633887890e+25 3.181212286792687305e+00
1.749999999999999974e-06 5.733184315234326348e+25 3.181184754871034581e+00
1.760000000000000090e-06 5.728674136030563505e+25 3.181214557046072144e+00
1.769999999999999994e-06 5.724645409254359318e+25 3.181059835534777225e+00
1.780000000000000110e-06 5.719356989351404092e+25 3.181216737320297305e+00
1.790000000000000014e-06 5.715342042396092252e+25 3.181062078289090600e+00
1.800000000000000130e-06 5.710469610326323563e+25 3.181198520926058926e+00
1.810000000000000035e-06 5.705594122346035391e+25 3.181248363889042530e+00
1.819999999999999939e-06 5.701599669285194304e+25 3.181093464367030332e+00
1.830000000000000055e-06 5.696749506943592102e+25 3.181230099695488089e+00
1.839999999999999959e-06 5.692367727333571924e+25 3.181095633332893247e+00
1.850000000000000075e-06 5.687532612344067449e+25 3.181232167419109302e+00
1.859999999999999979e-06 5.683564840110324169e+25 3.181077298604114034e+00
1.870000000000000095e-06 5.678733850187623305e+25 3.181126702028727493e+00
1.880000000000000000e-06 5.673920669298902368e+25 3.181263430899067046e+00
1.890000000000000116e-06 5.669974620287221382e+25 3.181108334093945444e+00
1.900000000000000020e-06 5.665166002295379171e+25 3.181157452481694570e+00
1.909999999999999924e-06 5.660842808829501078e+25 3.181110414248459861e+00
1.920000000000000252e-06 5.656446765731201680e+25 3.181139058283162235e+00
1.930000000000000156e-06 5.652137330113836697e+25 3.181091782269524160e+00
1.940000000000000060e-06 5.647357499930952161e+25 3.181141167014467364e+00
1.949999999999999965e-06 5.642982769173348676e+25 3.181169473747476939e+00
1.959999999999999869e-06 5.638693541903899420e+25 3.181122506144096640e+00
1.970000000000000197e-06 5.633935818946891268e+25 3.181171611873538474e+00
1.980000000000000101e-06 5.629660586910421070e+25 3.181124500918463216e+00
1.990000000000000005e-06 5.625312989467111866e+25 3.181152924361934975e+00
1.999999999999999909e-06 5.620578821547827842e+25 3.181201753771154106e+00
2.010000000000000237e-06 5.616323469691430853e+25 3.181154949232184670e+00
2.020000000000000142e-06 5.611996714482982340e+25 3.181183046390778202e+00
2.030000000000000046e-06 5.607745992519599789e+25 3.181047819652252695e+00
2.039999999999999950e-06 5.603046927058327907e+25 3.181185112363191791e+00
2.049999999999999854e-06 5.599203658506935368e+25 3.181029071123359753e+00
2.060000000000000182e-06 5.594124821876016031e+25 3.181187105219917655e+00
2.070000000000000086e-06 5.589832120069431522e+25 3.181215009349654732e+00
2.079999999999999991e-06 5.586007965065024731e+25 3.181058769409597087e+00
2.089999999999999895e-06 5.580950898326076895e+25 3.181217059347388521e+00
2.100000000000000223e-06 5.577139438279831170e+25 3.181060910055673041e+00
2.110000000000000127e-06 5.572490950465143070e+25 3.181198100576782206e+00
2.120000000000000031e-06 5.568231623923430278e+25 3.181225726874068016e+00
2.129999999999999935e-06 5.564047327011874631e+25 3.181090442161910836e+00
2.139999999999999840e-06 5.559417988896774308e+25 3.181227840902134396e+00
2.150000000000000167e-06 5.555637859858841408e+25 3.181071500072668368e+00
2.160000000000000072e-06 5.551014525253264848e+25 3.181119762071936474e+00
2.169999999999999976e-06 5.546405819195362894e+25 3.181257371243613186e+00
2.179999999999999880e-06 5.542644484382968903e+25 3.181100852637060328e+00
2.190000000000000208e-06 5.537659630333847218e+25 3.181259509393049800e+00
2.200000000000000112e-06 5.533910717961047990e+25 3.181103087484900893e+00
2.210000000000000016e-06 5.529711074856499329e+25 3.181129999735274438e+00
2.219999999999999921e-06 5.525203662761683527e+25 3.181105260996775819e+00
2.230000000000000248e-06 5.521018543551640897e+25 3.181132313172571724e+00
2.240000000000000153e-06 5.516457375272815199e+25 3.181269821057290059e+00
2.250000000000000057e-06 5.512350813814917906e+25 3.181134562049252157e+00
2.259999999999999961e-06 5.508183652312167515e+25 3.181161331523048474e+00
2.269999999999999866e-06 5.504096814075842494e+25 3.181115459819923164e+00
2.280000000000000193e-06 5.499942038590166760e+25 3.181142267398338497e+00
2.290000000000000098e-06 5.495407332375282092e+25 3.181190152578310393e+00
2.300000000000000002e-06 5.491339099026184200e+25 3.181144591946145628e+00
2.309999999999999906e-06 5.487203800920075142e+25 3.181171128905549317e+00
2.320000000000000234e-06 5.482762296451652422e+25 3.181146859826012196e+00
2.330000000000000138e-06 5.478639601714167652e+25 3.181173546632086069e+00
2.340000000000000042e-06 5.474525241938461733e+25 3.181199820432033309e+00
2.349999999999999947e-06 5.470102961347044884e+25 3.181175914686034556e+00
2.359999999999999851e-06 5.465999485013840490e+25 3.181202345476724425e+00
2.370000000000000179e-06 5.462353180191589958e+25 3.181044968092647363e+00
2.380000000000000083e-06 5.457499485912106665e+25 3.181204830805453021e+00
2.389999999999999987e-06 5.453865037914313931e+25 3.181047571648153660e+00
2.399999999999999891e-06 5.449408739036738949e+25 3.181185710096501307e+00
2.410000000000000219e-06 5.444953121313351023e+25 3.181233629746234026e+00
2.420000000000000123e-06 5.441336330360211361e+25 3.181076233185827995e+00
2.430000000000000028e-06 5.436899379730053059e+25 3.181214594917971983e+00
2.439999999999999932e-06 5.433294037463446957e+25 3.181057222982811350e+00
2.450000000000000260e-06 5.428865992696821303e+25 3.181104796299222048e+00
2.460000000000000164e-06 5.424448375840358580e+25 3.181243382412768383e+00
2.470000000000000068e-06 5.420860593038719116e+25 3.181085880252707998e+00
2.479999999999999972e-06 5.416074496738158210e+25 3.181246124686791799e+00
2.489999999999999877e-06 5.412498321624064454e+25 3.181088744873112439e+00
2.500000000000000205e-06 5.408481641887234387e+25 3.181114441864345110e+00
2.510000000000000109e-06 5.403715376236354045e+25 3.181274949569539157e+00
2.520000000000000013e-06 5.400156409713548454e+25 3.181117440641279881e+00
2.529999999999999917e-06 5.396158146825787339e+25 3.181142911218596492e+00
2.540000000000000245e-06 5.391855919041018029e+25 3.181120403768006533e+00
2.550000000000000149e-06 5.387869552754650662e+25 3.181146048652824909e+00
2.560000000000000054e-06 5.383516756857169767e+25 3.181284775209226368e+00
2.569999999999999958e-06 5.379985806800088926e+25 3.181127171976056989e+00
2.579999999999999862e-06 5.375638948357814550e+25 3.181174578213230131e+00
2.590000000000000190e-06 5.371745805853797188e+25 3.181130303992552921e+00
2.600000000000000094e-06 5.367789108473349565e+25 3.181155810004214324e+00
2.609999999999999998e-06 5.363461174204713391e+25 3.181203050031330193e+00
2.619999999999999903e-06 5.359585261126149852e+25 3.181159101673860068e+00
2.630000000000000230e-06 5.355646570200041773e+25 3.181184406111860152e+00
2.640000000000000135e-06 5.351778192684834784e+25 3.181048370053482621e+00
2.650000000000000039e-06 5.347478634446801445e+25 3.181187871741705919e+00
