# z (um)	 Electron density (m^-3)
0.000000000000000000e+00 7.231164218804218291e+24 3.194644371201254440e+00
1.000000000000000021e-08 7.230992177274448486e+24 3.194479563631543062e+00
2.000000000000000042e-08 7.229283160405599200e+24 3.194530566582762354e+00
3.000000000000000394e-08 7.228507820033151840e+24 3.194553491541491486e+00
4.000000000000000084e-08 7.227732698795067333e+24 3.194576382999784858e+00
4.999999999999999774e-08 7.226957801177375671e+24 3.194599240917828542e+00
6.000000000000000787e-08 7.226194917325212691e+24 3.194622065002604927e+00
7.000000000000000477e-08 7.225420507168987521e+24 3.194644855725735422e+00
8.000000000000000167e-08 7.224646311493187764e+24 3.194667612813313795e+00
8.999999999999999857e-08 7.224060722890233336e+24 3.194536126983304136e+00
9.999999999999999547e-08 7.222768124883510443e+24 3.194553976564693087e+00
1.100000000000000056e-07 7.221994218037221890e+24 3.194576898806526177e+00
1.200000000000000157e-07 7.221220525037786650e+24 3.194599787909444544e+00
1.299999999999999994e-07 7.220447048247155414e+24 3.194622643893988645e+00
1.400000000000000095e-07 7.219673789998105310e+24 3.194645466777054299e+00
1.499999999999999932e-07 7.218900752473002636e+24 3.194668256573307552e+00
1.600000000000000033e-07 7.218730243747378151e+24 3.194503487193552260e+00
1.700000000000000135e-07 7.217555031617193403e+24 3.194559692695926767e+00
1.799999999999999971e-07 7.216264255891671737e+24 3.194577551714266050e+00
1.900000000000000073e-07 7.215491725241053658e+24 3.194600475310682253e+00
1.999999999999999909e-07 7.214719379329444049e+24 3.194623366318679825e+00
2.100000000000000011e-07 7.213947242497286938e+24 3.194646224723156180e+00
2.200000000000000112e-07 7.213175319179457108e+24 3.194669050495405394e+00
2.299999999999999949e-07 7.212403613880085687e+24 3.194691843597116776e+00
2.400000000000000315e-07 7.212233799832018295e+24 3.194527104035114196e+00
2.499999999999999887e-07 7.211048328545969163e+24 3.194583452338598750e+00
2.599999999999999988e-07 7.210276829383999791e+24 3.194606393026261593e+00
2.700000000000000090e-07 7.208988148260155536e+24 3.194624251863598552e+00
2.800000000000000191e-07 7.208228924512890591e+24 3.194647146909197488e+00
2.900000000000000292e-07 7.207458163755234336e+24 3.194670009805222310e+00
2.999999999999999864e-07 7.206687641725654754e+24 3.194692840266810663e+00
3.099999999999999966e-07 7.206518582582146924e+24 3.194528119821531842e+00
3.200000000000000067e-07 7.205334697746243286e+24 3.194584442836463367e+00
3.300000000000000168e-07 7.204564362006390517e+24 3.194607421618155474e+00
3.400000000000000270e-07 7.203794255779180120e+24 3.194630367969125473e+00
3.499999999999999842e-07 7.202507422489911023e+24 3.194648241432821667e+00
3.599999999999999943e-07 7.201737833067906597e+24 3.194671143161134985e+00
3.700000000000000044e-07 7.200968455129857750e+24 3.194694012909891079e+00
3.800000000000000146e-07 7.200199291843507948e+24 3.194716850675060726e+00
3.900000000000000247e-07 7.200042717388728726e+24 3.194552163631311004e+00
3.999999999999999819e-07 7.198860389324666035e+24 3.194608632546148907e+00
4.099999999999999920e-07 7.198091445159824250e+24 3.194631620035972563e+00
4.200000000000000022e-07 7.197322704193825871e+24 3.194654575586806544e+00
4.300000000000000123e-07 7.196037683181819244e+24 3.194672467306971519e+00
4.400000000000000224e-07 7.195269446264637887e+24 3.194695379231156096e+00
4.500000000000000326e-07 7.194501414884777558e+24 3.194718259665381144e+00
4.599999999999999898e-07 7.193733592755040990e+24 3.194741108602526136e+00
4.699999999999999999e-07 7.193153014125728536e+24 3.194610045923642616e+00
4.800000000000000630e-07 7.192385150682975353e+24 3.194633077493642670e+00
4.899999999999999672e-07 7.191617505899340450e+24 3.194656077602678668e+00
4.999999999999999774e-07 7.190861815245982692e+24 3.194679046016651647e+00
5.099999999999999875e-07 7.189578573289609591e+24 3.194696959868022823e+00
5.199999999999999976e-07 7.188811685163831168e+24 3.194719885876462051e+00
5.300000000000000078e-07 7.188044985888630186e+24 3.194742780851947739e+00
5.400000000000000179e-07 7.187878086802456766e+24 3.194578159152471564e+00
5.500000000000000281e-07 7.186698812829866274e+24 3.194634759951499259e+00
5.600000000000000382e-07 7.185932297636648992e+24 3.194657807328064258e+00
5.700000000000000483e-07 7.185166006324523700e+24 3.194680823659424629e+00
5.800000000000000585e-07 7.184399941839670460e+24 3.194703808965624781e+00
5.899999999999999627e-07 7.183118506790521416e+24 3.194721748357817859e+00
5.999999999999999728e-07 7.182352955227360423e+24 3.194744691843721451e+00
6.099999999999999830e-07 7.181587614197271799e+24 3.194767604714558562e+00
6.199999999999999931e-07 7.181433168627852001e+24 3.194603026554722724e+00
6.300000000000000033e-07 7.180255461899849779e+24 3.194659782430135042e+00
6.400000000000000134e-07 7.179490311668023586e+24 3.194682848951205134e+00
6.500000000000000235e-07 7.178725382398526246e+24 3.194705884874145418e+00
6.600000000000000337e-07 7.177960675739348521e+24 3.194728890234067364e+00
6.700000000000000438e-07 7.176681044125294663e+24 3.194746858609359474e+00
6.800000000000000539e-07 7.175916838635064971e+24 3.194769823135160891e+00
6.900000000000000641e-07 7.175152836705163535e+24 3.194792757561713437e+00
6.999999999999999683e-07 7.174575191373610054e+24 3.194662021738030155e+00
7.099999999999999785e-07 7.173811136297852016e+24 3.194685141501040437e+00
7.199999999999999886e-07 7.173047292441595537e+24 3.194708231245702912e+00
7.299999999999999987e-07 7.172295375279294249e+24 3.194731290748179298e+00
7.400000000000000089e-07 7.171531971098983742e+24 3.194754320559900496e+00
7.500000000000000190e-07 7.170254108860099041e+24 3.194772322412751109e+00
7.600000000000000291e-07 7.169491200344929251e+24 3.194795312621667716e+00
7.700000000000000393e-07 7.169326418889358541e+24 3.194630819342020533e+00
7.800000000000000494e-07 7.168151701451418519e+24 3.194687725121727162e+00
7.900000000000000595e-07 7.167388947089577461e+24 3.194710872334118434e+00
7.999999999999999638e-07 7.166626407035136912e+24 3.194733990118026945e+00
8.099999999999999739e-07 7.165864085271135723e+24 3.194757078509618875e+00
8.199999999999999841e-07 7.165101985181739690e+24 3.194780137549221966e+00
8.299999999999999942e-07 7.164340109380374135e+24 3.194803167283638334e+00
8.400000000000000043e-07 7.163075986265253595e+24 3.194821197686056546e+00
8.500000000000000145e-07 7.162500350902680810e+24 3.194690624456556272e+00
8.600000000000000246e-07 7.161738748454434721e+24 3.194713832562412481e+00
8.700000000000000347e-07 7.160977334401383575e+24 3.194737011958576733e+00
8.800000000000000449e-07 7.160216131691531192e+24 3.194760162695228889e+00
8.900000000000000550e-07 7.159455142883663395e+24 3.194783284817639846e+00
9.000000000000000652e-07 7.158694370088111292e+24 3.194806378367375466e+00
9.099999999999999694e-07 7.157933814842967095e+24 3.194829443384491263e+00
9.199999999999999795e-07 7.156659755024782291e+24 3.194847518440334433e+00
9.299999999999999897e-07 7.156084973162037242e+24 3.194717141563476304e+00
9.399999999999999998e-07 7.155324639256219094e+24 3.194740387162354089e+00
9.500000000000000100e-07 7.154576190733182063e+24 3.194763604477879326e+00
9.600000000000001260e-07 7.153816268825376697e+24 3.194786794046631240e+00
9.700000000000000302e-07 7.153056574998209328e+24 3.194809955622054609e+00
9.799999999999999345e-07 7.152297072397595309e+24 3.194833089219791145e+00
9.900000000000000505e-07 7.151537783976602225e+24 3.194856194857710552e+00
9.999999999999999547e-07 7.150861709585232549e+24 3.194686895776858826e+00
1.010000000000000071e-06 7.149691478915622743e+24 3.194744143291890826e+00
1.019999999999999975e-06 7.148932411751674872e+24 3.194767431142103487e+00
1.030000000000000091e-06 7.148173546896669291e+24 3.194790691520275505e+00
1.039999999999999995e-06 7.147414889021526814e+24 3.194813924458883125e+00
1.050000000000000111e-06 7.146656442597046403e+24 3.194837129992997404e+00
1.060000000000000016e-06 7.145909883655330567e+24 3.194860307899915597e+00
1.069999999999999920e-06 7.145151879626252383e+24 3.194883458746943017e+00
1.080000000000000036e-06 7.144066156197526859e+24 3.194748304480046208e+00
1.089999999999999940e-06 7.143308183986607934e+24 3.194771666388062314e+00
1.100000000000000056e-06 7.142550414262881030e+24 3.194795001569340265e+00
1.109999999999999960e-06 7.141792850840352268e+24 3.194818310088162860e+00
1.120000000000000076e-06 7.141035497291517463e+24 3.194841592004867614e+00
1.129999999999999981e-06 7.140278356749789333e+24 3.194864847378219519e+00
1.140000000000000097e-06 7.139521431730136445e+24 3.194888076268258548e+00
1.150000000000000001e-06 7.139360011268013458e+24 3.194723862014314353e+00
1.160000000000000117e-06 7.137680282347465288e+24 3.194776343146823017e+00
1.170000000000000021e-06 7.136923598693810741e+24 3.194799758498761300e+00
1.179999999999999925e-06 7.136178776716567894e+24 3.194823147796089113e+00
1.190000000000000041e-06 7.135422516112185144e+24 3.194846511632254416e+00
1.199999999999999946e-06 7.134666437846998962e+24 3.194869849813258167e+00
1.210000000000000062e-06 7.133910564525624089e+24 3.194893162405862075e+00
1.219999999999999966e-06 7.133154898437446671e+24 3.194916449478470533e+00
1.230000000000000082e-06 7.132583876146119125e+24 3.194786452844146751e+00
1.239999999999999986e-06 7.131316248988851483e+24 3.194805001169243042e+00
1.250000000000000102e-06 7.130560799343102816e+24 3.194828477622542184e+00
1.260000000000000007e-06 7.129805540232811826e+24 3.194851929278261782e+00
1.270000000000000123e-06 7.129050475826888520e+24 3.194875356189320836e+00
1.280000000000000027e-06 7.128295610500398113e+24 3.194898758397565430e+00
1.289999999999999931e-06 7.127552601010512503e+24 3.194922135671760977e+00
1.300000000000000047e-06 7.126798154586706980e+24 3.194945488565827052e+00
1.309999999999999951e-06 7.126227939181807920e+24 3.194815715425417313e+00
1.320000000000000067e-06 7.125473453209114607e+24 3.194839264294937031e+00
1.329999999999999972e-06 7.124207787422407272e+24 3.194857883697026502e+00
1.340000000000000088e-06 7.123453784384130303e+24 3.194881404031867156e+00
1.349999999999999992e-06 7.122699977604275477e+24 3.194904900414126114e+00
1.360000000000000108e-06 7.121946370612248275e+24 3.194928372894804802e+00
1.370000000000000012e-06 7.121192966752407661e+24 3.194951821526731184e+00
1.380000000000000128e-06 7.121033423206532218e+24 3.194787857650281726e+00
1.390000000000000032e-06 7.119870346302561295e+24 3.194845702325014969e+00
1.399999999999999937e-06 7.119128743008517700e+24 3.194869324683936807e+00
1.410000000000000053e-06 7.117864767439040040e+24 3.194888026976236972e+00
1.419999999999999957e-06 7.117112025919490334e+24 3.194911623118710686e+00
1.430000000000000073e-06 7.116359455271104216e+24 3.194935196425652268e+00
1.439999999999999977e-06 7.115607078545102159e+24 3.194958747012312195e+00
1.450000000000000093e-06 7.114854898826747077e+24 3.194982274992887117e+00
1.459999999999999997e-06 7.114286515246397856e+24 3.194852745961680007e+00
1.470000000000000113e-06 7.113534273747823366e+24 3.194876474130632804e+00
1.480000000000000018e-06 7.112782235320594031e+24 3.194900180105593623e+00
1.490000000000000134e-06 7.111519895424733140e+24 3.194918975280131690e+00
1.500000000000000038e-06 7.110768321230075616e+24 3.194942657610657655e+00
1.509999999999999942e-06 7.110028560296181735e+24 3.194966318217387524e+00
1.520000000000000058e-06 7.109277373712234870e+24 3.194989957697924599e+00
1.529999999999999963e-06 7.108526403896706922e+24 3.195013575842788001e+00
1.540000000000000079e-06 7.107958780386900705e+24 3.194884293395948482e+00
1.549999999999999983e-06 7.107207731771127814e+24 3.194908114044761049e+00
1.560000000000000099e-06 7.106456888489797803e+24 3.194931913562470971e+00
1.570000000000000003e-06 7.105196188788855017e+24 3.194950811358999054e+00
1.580000000000000119e-06 7.104445815220886330e+24 3.194974589180127111e+00
1.590000000000000023e-06 7.103695632098042495e+24 3.194998346441539461e+00
1.599999999999999928e-06 7.102945643310507320e+24 3.195022083188986173e+00
1.610000000000000044e-06 7.102379050235176931e+24 3.194892829833148262e+00
1.619999999999999948e-06 7.101640610375806029e+24 3.194916770395649586e+00
1.630000000000000064e-06 7.100890768174899077e+24 3.194940690958482765e+00
1.639999999999999968e-06 7.100141151209206772e+24 3.194964591380419883e+00
1.650000000000000084e-06 7.098882098469040850e+24 3.194983599183536693e+00
1.659999999999999988e-06 7.098132928068423134e+24 3.195007480096198282e+00
1.670000000000000104e-06 7.097383945008818894e+24 3.195031341656184409e+00
1.680000000000000009e-06 7.096635152175530248e+24 3.195055183996327042e+00
1.690000000000000125e-06 7.096069322241086134e+24 3.194926191752941680e+00
1.700000000000000029e-06 7.095320455243039882e+24 3.194950241008255976e+00
1.709999999999999933e-06 7.094571784243410264e+24 3.194974271549451128e+00
1.720000000000000049e-06 7.093823311117913650e+24 3.194998283568692532e+00
1.729999999999999953e-06 7.092565856515589082e+24 3.195017412659711731e+00
1.740000000000000069e-06 7.091829441577445692e+24 3.195041408290546059e+00
1.749999999999999974e-06 7.091081629240067797e+24 3.195065386557664588e+00
1.760000000000000090e-06 7.090333982074450142e+24 3.195089347329523655e+00
1.769999999999999994e-06 7.089768867316310301e+24 3.194960628841322148e+00
1.780000000000000110e-06 7.089021138707541725e+24 3.194984799898903827e+00
1.790000000000000014e-06 7.088273603568314113e+24 3.195008953881600888e+00
1.800000000000000130e-06 7.087526264716819647e+24 3.195033090930906372e+00
1.810000000000000035e-06 7.086779124367270737e+24 3.195057211185552859e+00
1.819999999999999939e-06 7.085523518659584753e+24 3.195076478198445979e+00
1.830000000000000055e-06 7.084776831672105558e+24 3.195100585661061476e+00
1.839999999999999959e-06 7.084212704885112427e+24 3.194971923373458367e+00
1.850000000000000075e-06 7.083477515748960868e+24 3.194996243366867716e+00
1.859999999999999979e-06 7.082730927435184538e+24 3.195020547819026557e+00
1.870000000000000095e-06 7.081984549109779940e+24 3.195044836589674198e+00
1.880000000000000000e-06 7.081238343656548086e+24 3.195069109814063335e+00
1.890000000000000116e-06 7.080492333150117640e+24 3.195093367633100812e+00
1.900000000000000020e-06 7.079238293142407953e+24 3.195112781588031137e+00
1.909999999999999924e-06 7.078492728905863289e+24 3.195137029458593236e+00
1.920000000000000252e-06 7.077929298139198312e+24 3.195008661621138391e+00
1.930000000000000156e-06 7.077183632271824996e+24 3.195033125259036044e+00
1.940000000000000060e-06 7.076438149590137983e+24 3.195057574662382383e+00
1.949999999999999965e-06 7.075692853530788641e+24 3.195082010022184615e+00
1.959999999999999869e-06 7.074959327604208308e+24 3.195106431268141201e+00
1.970000000000000197e-06 7.074214421593398431e+24 3.195130839142147572e+00
1.980000000000000101e-06 7.072961943060143072e+24 3.195150412928955408e+00
1.990000000000000005e-06 7.072217480206642219e+24 3.195174814588833456e+00
1.999999999999999909e-06 7.071654727759503922e+24 3.195046754576921444e+00
2.010000000000000237e-06 7.070910161445572036e+24 3.195071375930166546e+00
2.020000000000000142e-06 7.070165777148486537e+24 3.195095985080667944e+00
2.030000000000000046e-06 7.069421578177636764e+24 3.195120582244439955e+00
2.039999999999999950e-06 7.068677567415407482e+24 3.195145167632275740e+00
2.049999999999999854e-06 7.067933747146553788e+24 3.195169741452124068e+00
2.060000000000000182e-06 7.066682770594136353e+24 3.195189491166356976e+00
2.070000000000000086e-06 7.066132525934037160e+24 3.195061520367247443e+00
2.079999999999999991e-06 7.065388864685211581e+24 3.195086326131288956e+00
2.089999999999999895e-06 7.064645399316887530e+24 3.195111121457836489e+00
2.100000000000000223e-06 7.063902093401821725e+24 3.195135906519457780e+00
2.110000000000000127e-06 7.063158969861402073e+24 3.195160681480114118e+00
2.120000000000000031e-06 7.062416031331953588e+24 3.195185446502363025e+00
2.129999999999999935e-06 7.061673279860867854e+24 3.195210201750146695e+00
2.139999999999999840e-06 7.060423805815763289e+24 3.195230142550371522e+00
2.150000000000000167e-06 7.059862636339843754e+24 3.195102508003786923e+00
2.160000000000000072e-06 7.059120024717609052e+24 3.195127500439477686e+00
2.169999999999999976e-06 7.058377584316544486e+24 3.195152484192670617e+00
2.179999999999999880e-06 7.057635318533131669e+24 3.195177459465242009e+00
2.190000000000000208e-06 7.056904791759976940e+24 3.195202426196241063e+00
2.200000000000000112e-06 7.056162912395466455e+24 3.195227385147134225e+00
2.210000000000000016e-06 7.055421196826281196e+24 3.195252336287512485e+00
2.219999999999999921e-06 7.054173192154487554e+24 3.195272482903433353e+00
2.230000000000000248e-06 7.053612634481250066e+24 3.195145199038159411e+00
2.240000000000000153e-06 7.052871049973323631e+24 3.195170393788947738e+00
2.250000000000000057e-06 7.052129633912679884e+24 3.195195582181460825e+00
2.259999999999999961e-06 7.051388389771065445e+24 3.195220764500267485e+00
2.269999999999999866e-06 7.050647320819066770e+24 3.195245941029987602e+00
2.280000000000000193e-06 7.049906429941208593e+24 3.195271112053394091e+00
2.290000000000000098e-06 7.049165719472205069e+24 3.195296277853780786e+00
2.300000000000000002e-06 7.048617493143800215e+24 3.195169108042076989e+00
2.309999999999999906e-06 7.047370774341208760e+24 3.195189735069525305e+00
2.320000000000000234e-06 7.046630212198763365e+24 3.195215152022056415e+00
2.330000000000000138e-06 7.045889812147634249e+24 3.195240565279956702e+00
2.340000000000000042e-06 7.045149576830254945e+24 3.195265975093771527e+00
2.349999999999999947e-06 7.044409508880532399e+24 3.195291381699326472e+00
2.359999999999999851e-06 7.043669610758383361e+24 3.195316785323242481e+00
2.370000000000000179e-06 7.042929884591504564e+24 3.195342186187724920e+00
2.380000000000000083e-06 7.042370670610874888e+24 3.195215403695826240e+00
2.389999999999999987e-06 7.041125328449922910e+24 3.195236278383768003e+00
2.399999999999999891e-06 7.040385718276333597e+24 3.195261937505721406e+00
2.410000000000000219e-06 7.039657797588526903e+24 3.195287594972642697e+00
2.420000000000000123e-06 7.038918508675343120e+24 3.195313251580350844e+00
2.430000000000000028e-06 7.038179402450395011e+24 3.195338907317061050e+00
2.439999999999999932e-06 7.037440442805370680e+24 3.195364562460892621e+00
2.450000000000000260e-06 7.036295661400860870e+24 3.195425281323586830e+00
2.460000000000000164e-06 7.036142956888486392e+24 3.195263840471468164e+00
2.470000000000000068e-06 7.034898981608755483e+24 3.195284982155622622e+00
2.479999999999999972e-06 7.034160303908372200e+24 3.195310903248226531e+00
2.489999999999999877e-06 7.033421781992931701e+24 3.195336825840795036e+00
2.500000000000000205e-06 7.032683419806214692e+24 3.195362750282004782e+00
2.510000000000000109e-06 7.031945221150114411e+24 3.195388676917310100e+00
2.520000000000000013e-06 7.031218711199206844e+24 3.195414605815914744e+00
2.529999999999999917e-06 7.030075051108068430e+24 3.195475730604689257e+00
2.540000000000000245e-06 7.029922705334007729e+24 3.195314590142896094e+00
2.550000000000000149e-06 7.028680100572528810e+24 3.195336023227660860e+00
2.560000000000000054e-06 7.027942357399509861e+24 3.195362231129268871e+00
2.569999999999999958e-06 7.027204767096497374e+24 3.195388443701190351e+00
2.579999999999999862e-06 7.026467332315393137e+24 3.195414661249569299e+00
2.590000000000000190e-06 7.025730055540273089e+24 3.195440884067508147e+00
2.600000000000000094e-06 7.024992938921262284e+24 3.195467112442286872e+00
2.609999999999999998e-06 7.024435540394857690e+24 3.195341367342686922e+00
2.619999999999999903e-06 7.023698291851655043e+24 3.195367852202106729e+00
2.630000000000000230e-06 7.022468510634416884e+24 3.195389600752686743e+00
2.640000000000000135e-06 7.021731645674488966e+24 3.195416119482525019e+00
2.650000000000000039e-06 7.020994943460458260e+24 3.195442645744553278e+00
