# z (um)	 Electron density (m^-3)
0.000000000000000000e+00 2.949137622743093988e+26 5.391460018153013678e+00
1.000000000000000021e-08 2.937179914650026454e+26 5.390802197600061518e+00
2.000000000000000042e-08 2.924932027750483773e+26 5.390715975718554986e+00
3.000000000000000394e-08 2.913540084262504856e+26 5.390681320371658813e+00
4.000000000000000084e-08 2.901881337119997246e+26 5.389954103610139491e+00
4.999999999999999774e-08 2.889919783639279575e+26 5.389976084482847263e+00
6.000000000000000787e-08 2.878660507604958692e+26 5.389949832265690688e+00
7.000000000000000477e-08 2.866893587188480144e+26 5.389906199426581779e+00
8.000000000000000167e-08 2.855761426565895863e+26 5.389204486421879992e+00
8.999999999999999857e-08 2.844177327057147313e+26 5.389251937394183400e+00
9.999999999999999547e-08 2.833280457137674782e+26 5.389251081756206041e+00
1.100000000000000056e-07 2.821677173758375582e+26 5.388543471460184087e+00
1.200000000000000157e-07 2.810955541597005782e+26 5.388554892158334830e+00
1.299999999999999994e-07 2.799731600376180971e+26 5.388627086722378223e+00
1.400000000000000095e-07 2.789124557040139776e+26 5.387973143495461414e+00
1.499999999999999932e-07 2.778081484775800454e+26 5.387966564650108481e+00
1.600000000000000033e-07 2.766924239005068223e+26 5.387276605366183801e+00
1.700000000000000135e-07 2.756620065547398332e+26 5.387328916912559329e+00
1.799999999999999971e-07 2.745831549794029403e+26 5.387339282640901672e+00
1.900000000000000073e-07 2.735634613161528960e+26 5.386794516868422811e+00
1.999999999999999909e-07 2.725007126033785346e+26 5.386827252774931019e+00
2.100000000000000011e-07 2.715024749812303419e+26 5.386891552479757372e+00
2.200000000000000112e-07 2.704364926237879046e+26 5.386234920407806825e+00
2.299999999999999949e-07 2.694534173656573975e+26 5.386321791920270385e+00
2.400000000000000315e-07 2.684033750037466022e+26 5.385676067554667767e+00
2.499999999999999887e-07 2.674504705338318036e+26 5.385763327346614560e+00
2.599999999999999988e-07 2.664349824850236439e+26 5.385829840115614608e+00
2.700000000000000090e-07 2.654629199853222543e+26 5.385238271228549145e+00
2.800000000000000191e-07 2.644628887013533056e+26 5.385304760505229993e+00
2.900000000000000292e-07 2.634510160404880293e+26 5.384697598808513064e+00
2.999999999999999864e-07 2.625345791943419584e+26 5.384813624676962895e+00
3.099999999999999966e-07 2.615377916448980353e+26 5.384206257005149432e+00
3.200000000000000067e-07 2.606205172434098509e+26 5.384344767037977597e+00
3.300000000000000168e-07 2.596570193904358589e+26 5.384439307993013735e+00
3.400000000000000270e-07 2.587347572071093422e+26 5.383898308252781817e+00
3.499999999999999842e-07 2.577853267636671177e+26 5.384003931110629360e+00
3.599999999999999943e-07 2.568914482878339173e+26 5.383462862988380948e+00
3.700000000000000044e-07 2.559554576584838443e+26 5.383590765317092242e+00
3.800000000000000146e-07 2.550081748158437520e+26 5.383021173675872184e+00
3.900000000000000247e-07 2.541379483909951921e+26 5.383198758009348772e+00
3.999999999999999819e-07 2.532041334658309697e+26 5.382639535679088816e+00
4.099999999999999920e-07 2.523610410387954808e+26 5.382827981366237857e+00
4.200000000000000022e-07 2.514403937313731469e+26 5.382278890426181128e+00
4.300000000000000123e-07 2.505444989160223617e+26 5.382426385047606843e+00
4.400000000000000224e-07 2.496877736470507282e+26 5.381938089300854600e+00
4.500000000000000326e-07 2.488045625463907559e+26 5.382095515087050863e+00
4.599999999999999898e-07 2.479743788692332088e+26 5.381617383371233743e+00
4.699999999999999999e-07 2.471035927375399359e+26 5.381784604477263478e+00
4.800000000000000630e-07 2.462216045912558115e+26 5.381179132141997279e+00
4.899999999999999672e-07 2.454133547233134808e+26 5.381395947310463335e+00
4.999999999999999774e-07 2.445429257555564621e+26 5.380896393573406655e+00
5.099999999999999875e-07 2.437604485469522582e+26 5.381123333099532502e+00
5.199999999999999976e-07 2.429020112480564512e+26 5.380633426681567855e+00
5.300000000000000078e-07 2.420499223185569226e+26 5.380136708724021055e+00
5.400000000000000179e-07 2.412708352832720583e+26 5.380291900409799766e+00
5.500000000000000281e-07 2.404304354341869700e+26 5.379804521106430926e+00
5.600000000000000382e-07 2.396129619236503397e+26 5.380026740027690657e+00
5.700000000000000483e-07 2.388468882371569013e+26 5.379590250362720205e+00
5.800000000000000585e-07 2.380406644790653568e+26 5.379822525565375102e+00
5.899999999999999627e-07 2.372721680461654333e+26 5.379296859310895407e+00
5.999999999999999728e-07 2.364599352163404278e+26 5.378845361428432170e+00
6.099999999999999830e-07 2.356706457406681917e+26 5.379080756863610979e+00
6.199999999999999931e-07 2.349312737436939828e+26 5.378680454060394744e+00
6.300000000000000033e-07 2.341534000956106932e+26 5.378826473416109089e+00
6.400000000000000134e-07 2.333630928277002142e+26 5.378393848735704807e+00
6.500000000000000235e-07 2.326257603412170468e+26 5.377995714576493391e+00
6.600000000000000337e-07 2.318635022972222509e+26 5.378166949749265235e+00
6.700000000000000438e-07 2.311032063288472911e+26 5.377736709206994092e+00
6.800000000000000539e-07 2.303974739438536242e+26 5.378058277619215843e+00
6.900000000000000641e-07 2.296333178730690516e+26 5.377648325701816390e+00
6.999999999999999683e-07 2.289217178848624375e+26 5.377171686798653205e+00
7.099999999999999785e-07 2.281841756801833070e+26 5.377464902036503069e+00
7.199999999999999886e-07 2.274498360486103030e+26 5.376955239692755129e+00
7.299999999999999987e-07 2.267517939923394388e+26 5.376603112083719438e+00
7.400000000000000089e-07 2.260291907477745226e+26 5.376897039970792491e+00
7.500000000000000190e-07 2.252955234837598746e+26 5.376410049918478151e+00
7.600000000000000291e-07 2.246278293744401529e+26 5.376765500146730936e+00
7.700000000000000393e-07 2.239169734991297844e+26 5.376376498287867456e+00
7.800000000000000494e-07 2.231976308762406670e+26 5.375900793467506489e+00
7.900000000000000595e-07 2.225438037296870998e+26 5.376256795153434354e+00
7.999999999999999638e-07 2.218337707546645337e+26 5.375788859833408040e+00
8.099999999999999739e-07 2.211278057052183279e+26 5.375426808710077609e+00
8.199999999999999841e-07 2.204569467557222613e+26 5.375651530777756371e+00
8.299999999999999942e-07 2.198046498561730260e+26 5.375339565176267875e+00
8.400000000000000043e-07 2.191132797364309864e+26 5.374875475734926411e+00
8.500000000000000145e-07 2.184413739608555042e+26 5.375226516451402148e+00
8.600000000000000246e-07 2.178027867668897373e+26 5.374824560097605897e+00
8.700000000000000347e-07 2.171241799713186594e+26 5.374475504751960564e+00
8.800000000000000449e-07 2.164639076905932911e+26 5.374039831821106006e+00
8.900000000000000550e-07 2.158533200863264278e+26 5.374438768457216575e+00
9.000000000000000652e-07 2.151881400053312860e+26 5.374010982280091220e+00
9.099999999999999694e-07 2.145266727863686056e+26 5.373690552002259757e+00
9.199999999999999795e-07 2.139289920900290488e+26 5.373998875001852582e+00
9.299999999999999897e-07 2.132893108925561376e+26 5.373686955403297105e+00
9.399999999999999998e-07 2.126410335970163784e+26 5.373274744144808324e+00
9.500000000000000100e-07 2.120552338844276048e+26 5.373595078474868281e+00
9.600000000000001260e-07 2.114144340410149641e+26 5.373293882992195236e+00
9.700000000000000302e-07 2.107785920963545001e+26 5.372880625792372022e+00
9.799999999999999345e-07 2.101592658994542690e+26 5.372586948905382798e+00
9.900000000000000505e-07 2.095885181691416512e+26 5.372933213824508059e+00
9.999999999999999547e-07 2.089644498174239924e+26 5.372529819902745807e+00
1.010000000000000071e-06 2.083434366399900480e+26 5.372245455678207549e+00
1.019999999999999975e-06 2.077687093017496290e+26 5.371902406270583796e+00
1.030000000000000091e-06 2.071837986135142808e+26 5.372312404233862360e+00
1.039999999999999995e-06 2.065747416512164609e+26 5.371933057489350460e+00
1.050000000000000111e-06 2.060108747212750419e+26 5.371599197798358816e+00
1.060000000000000016e-06 2.054088589069187497e+26 5.371319128932873888e+00
1.069999999999999920e-06 2.048390026696272163e+26 5.371649272436591183e+00
1.080000000000000036e-06 2.042447287154771936e+26 5.371282509748368739e+00
1.089999999999999940e-06 2.036952729027163297e+26 5.370949706670534951e+00
1.100000000000000056e-06 2.031076100214083866e+26 5.370694578421042031e+00
1.109999999999999960e-06 2.025388389412631246e+26 5.371038508881552431e+00
1.120000000000000076e-06 2.020129419483454530e+26 5.370716354098537870e+00
1.129999999999999981e-06 2.014359448099958282e+26 5.370471964598989345e+00
1.140000000000000097e-06 2.008631211505429614e+26 5.370126041766878799e+00
1.150000000000000001e-06 2.003083284176767215e+26 5.370485108872218305e+00
1.160000000000000117e-06 1.997827913187123414e+26 5.370177123598939062e+00
1.170000000000000021e-06 1.992328795227847350e+26 5.369947652528914261e+00
1.179999999999999925e-06 1.986738721377378018e+26 5.369616239169697991e+00
1.190000000000000041e-06 1.981328547647837909e+26 5.369978588042098266e+00
1.199999999999999946e-06 1.976201741304001212e+26 5.369696573982150944e+00
1.210000000000000062e-06 1.970711631393716835e+26 5.369375544547057011e+00
1.219999999999999966e-06 1.965379529059753259e+26 5.369163134186038633e+00
1.230000000000000082e-06 1.960349654607330440e+26 5.368878732302131418e+00
1.239999999999999986e-06 1.955097951378366756e+26 5.369269862317426423e+00
1.250000000000000102e-06 1.949736443202214733e+26 5.368960999791912769e+00
1.260000000000000007e-06 1.944408913205405465e+26 5.368642973853531508e+00
1.270000000000000123e-06 1.939622416085854002e+26 5.368487063071492038e+00
1.280000000000000027e-06 1.934353588088531015e+26 5.368186034730014100e+00
1.289999999999999931e-06 1.929255085262504615e+26 5.368591244368645654e+00
1.300000000000000047e-06 1.924049288918937553e+26 5.368283374493271864e+00
1.309999999999999951e-06 1.919254577533934490e+26 5.368031824696438470e+00
1.320000000000000067e-06 1.914229500655270135e+26 5.367846212757478419e+00
1.329999999999999972e-06 1.909110116267929891e+26 5.367557489131894677e+00
1.340000000000000088e-06 1.904022595628780409e+26 5.367259426711586734e+00
1.349999999999999992e-06 1.899478535490198148e+26 5.367722588007245221e+00
1.360000000000000108e-06 1.894575391917375633e+26 5.367442000173914707e+00
1.370000000000000012e-06 1.889572045164427210e+26 5.367164120950098649e+00
1.380000000000000128e-06 1.884600020053130224e+26 5.366877303792491283e+00
1.390000000000000032e-06 1.880023738037066779e+26 5.366752684136748108e+00
1.399999999999999937e-06 1.875106190314448821e+26 5.366483894754949802e+00
1.410000000000000053e-06 1.870481421418866962e+26 5.366923999578782301e+00
1.419999999999999957e-06 1.865620471482876395e+26 5.366661760985767415e+00
1.430000000000000073e-06 1.861160396201925631e+26 5.366432624619456249e+00
1.439999999999999977e-06 1.856354729363321915e+26 5.366176986038104779e+00
1.450000000000000093e-06 1.851571430670733129e+26 5.366030175687033221e+00
1.459999999999999997e-06 1.846949362521675576e+26 5.365780880308909317e+00
1.470000000000000113e-06 1.842594610791603001e+26 5.365564425430273232e+00
1.480000000000000018e-06 1.838030333398716543e+26 5.366028052637600965e+00
1.490000000000000134e-06 1.833359358165940025e+26 5.365787976804230475e+00
1.500000000000000038e-06 1.828842703872086201e+26 5.365550498701495030e+00
1.509999999999999942e-06 1.824586294119261428e+26 5.365356947728446180e+00
1.520000000000000058e-06 1.819994336643541969e+26 5.365112826552055125e+00
1.529999999999999963e-06 1.815425641521010916e+26 5.364882782011293649e+00
1.540000000000000079e-06 1.810876715211935030e+26 5.364760577272846831e+00
1.549999999999999983e-06 1.806485384028368776e+26 5.364534529207142910e+00
1.560000000000000099e-06 1.802478864826595413e+26 5.365059523007346343e+00
1.570000000000000003e-06 1.798007450291301114e+26 5.364837749455225513e+00
1.580000000000000119e-06 1.793562298162115051e+26 5.364606022457355294e+00
1.590000000000000023e-06 1.789139011980932846e+26 5.364387985489060817e+00
1.599999999999999928e-06 1.785220211257055554e+26 5.364212400569646100e+00
1.610000000000000044e-06 1.780843281494370070e+26 5.363998367979712079e+00
1.619999999999999948e-06 1.776489962434809096e+26 5.363786438142983393e+00
1.630000000000000064e-06 1.772160153963988914e+26 5.363576726686809515e+00
1.639999999999999968e-06 1.768327354883714549e+26 5.363503504878087469e+00
1.650000000000000084e-06 1.764043241677723409e+26 5.363298672825568936e+00
1.659999999999999988e-06 1.759909874296056398e+26 5.363805601073384111e+00
1.670000000000000104e-06 1.755672041856514623e+26 5.363606260583395624e+00
1.680000000000000009e-06 1.751457374858537054e+26 5.363409754458148271e+00
1.690000000000000125e-06 1.747737399999477882e+26 5.363255933168391110e+00
1.700000000000000029e-06 1.743569626815533448e+26 5.363053563987567607e+00
1.709999999999999933e-06 1.739422585533749694e+26 5.362866006954877030e+00
1.720000000000000049e-06 1.735298111105157185e+26 5.362681455974035671e+00
1.729999999999999953e-06 1.731322011660560327e+26 5.362499401563421308e+00
1.740000000000000069e-06 1.727582694761563599e+26 5.362360591837719070e+00
1.749999999999999974e-06 1.723523472565322540e+26 5.362184776016028387e+00
1.760000000000000090e-06 1.719485863409073764e+26 5.362011648632609706e+00
1.769999999999999994e-06 1.715471579140667129e+26 5.361829237859878639e+00
1.780000000000000110e-06 1.711596933753383776e+26 5.361766439905665926e+00
1.790000000000000014e-06 1.707958766258548345e+26 5.361639967202591173e+00
1.800000000000000130e-06 1.704003702852334481e+26 5.361476077561383669e+00
1.810000000000000035e-06 1.700068854432132668e+26 5.361314098517076410e+00
1.819999999999999939e-06 1.696402115341149912e+26 5.361864351262808803e+00
1.830000000000000055e-06 1.692506477197090152e+26 5.361705878543991055e+00
1.839999999999999959e-06 1.688962555142455715e+26 5.361588008361893642e+00
1.850000000000000075e-06 1.685104807491307512e+26 5.361432587042529008e+00
1.859999999999999979e-06 1.681393210886869239e+26 5.361266114744565492e+00
1.870000000000000095e-06 1.677573320309674168e+26 5.361113574324831710e+00
1.880000000000000000e-06 1.673772236091234989e+26 5.360962545893243281e+00
1.890000000000000116e-06 1.670317905260514404e+26 5.360851765472225416e+00
1.900000000000000020e-06 1.666553334196965259e+26 5.360704094224911564e+00
1.909999999999999924e-06 1.662932054864549570e+26 5.360557528858195475e+00
1.920000000000000252e-06 1.659204528925128770e+26 5.360413742777567769e+00
1.930000000000000156e-06 1.655495568308186853e+26 5.360272156975642410e+00
1.940000000000000060e-06 1.652129096406219008e+26 5.360171130771444581e+00
1.949999999999999965e-06 1.648580795619163784e+26 5.360033656000099178e+00
1.959999999999999869e-06 1.644926404162689284e+26 5.359899673964871880e+00
1.970000000000000197e-06 1.641292360453136288e+26 5.359756654724394664e+00
1.980000000000000101e-06 1.637674748927296050e+26 5.359628322747927776e+00
1.990000000000000005e-06 1.634199524855933002e+26 5.359502014780301415e+00
1.999999999999999909e-06 1.630937233064770073e+26 5.359417203058550072e+00
2.010000000000000237e-06 1.627372940068626704e+26 5.359297577677085478e+00
2.020000000000000142e-06 1.623826407798342374e+26 5.359180737393522520e+00
2.030000000000000046e-06 1.620421313665739251e+26 5.359065606298082152e+00
2.039999999999999950e-06 1.616909423292068800e+26 5.358953909322119458e+00
2.049999999999999854e-06 1.613729779257343837e+26 5.358881673547973179e+00
2.060000000000000182e-06 1.610250846432822318e+26 5.358774407474263590e+00
2.070000000000000086e-06 1.606788381257029116e+26 5.358669039909282006e+00
2.079999999999999991e-06 1.603465598237465952e+26 5.358564346499194997e+00
2.089999999999999895e-06 1.600035084391906838e+26 5.358462155699876384e+00
2.100000000000000223e-06 1.596620254175537311e+26 5.358361293584541940e+00
2.110000000000000127e-06 1.593531505827757842e+26 5.358298177837245824e+00
2.120000000000000031e-06 1.590269916587779040e+26 5.358198543208289699e+00
2.129999999999999935e-06 1.586900070016353303e+26 5.358101020797629843e+00
2.139999999999999840e-06 1.583545263633308293e+26 5.358004546159052417e+00
2.150000000000000167e-06 1.580205410705287940e+26 5.357909163148079301e+00
2.160000000000000072e-06 1.577312182723471276e+26 5.357837923383246270e+00
2.169999999999999976e-06 1.574001213388492041e+26 5.357745029398461867e+00
2.179999999999999880e-06 1.570705159590951953e+26 5.357653626579979900e+00
2.190000000000000208e-06 1.567424032351852886e+26 5.357563904336473115e+00
2.200000000000000112e-06 1.564280601111792419e+26 5.357474902016362783e+00
2.210000000000000016e-06 1.561029256755657112e+26 5.357389161967153868e+00
2.219999999999999921e-06 1.558095398428685094e+26 5.357340974895421049e+00
2.230000000000000248e-06 1.554873398458153586e+26 5.357260024903093942e+00
2.240000000000000153e-06 1.551788977122273709e+26 5.357180514240495128e+00
2.250000000000000057e-06 1.548596962425819349e+26 5.357104973210739196e+00
2.259999999999999961e-06 1.545419971364970619e+26 5.357032266395110653e+00
2.269999999999999866e-06 1.542556789405163669e+26 5.356996948421514304e+00
2.280000000000000193e-06 1.539531126101221624e+26 5.356928644927093863e+00
2.290000000000000098e-06 1.536397771283026347e+26 5.356864323343971890e+00
2.300000000000000002e-06 1.533278957926021348e+26 5.356802603165905730e+00
2.309999999999999906e-06 1.530174471155536114e+26 5.356743306610924904e+00
2.320000000000000234e-06 1.527206060866772162e+26 5.356684939025909031e+00
2.330000000000000138e-06 1.524423982602456568e+26 5.356663596151925333e+00
2.340000000000000042e-06 1.521360170799372270e+26 5.356610215875730496e+00
2.349999999999999947e-06 1.518199652349866322e+26 5.355842015111958787e+00
2.359999999999999851e-06 1.515284213265724451e+26 5.355790020743119051e+00
2.370000000000000179e-06 1.512259751754074043e+26 5.355740442987277916e+00
2.380000000000000083e-06 1.509252292125532307e+26 5.355585297748574725e+00
2.389999999999999987e-06 1.506543450909985559e+26 5.355570474832217265e+00
2.399999999999999891e-06 1.503677352836619565e+26 5.355522021754496542e+00
2.410000000000000219e-06 1.500701934911767188e+26 5.355475647734276201e+00
2.420000000000000123e-06 1.497737027143072254e+26 5.355441939082782099e+00
2.430000000000000028e-06 1.494786103281617125e+26 5.355397181869284928e+00
2.439999999999999932e-06 1.492255697099650758e+26 5.355384229211160196e+00
2.450000000000000260e-06 1.489328470036694895e+26 5.355341569503716315e+00
2.460000000000000164e-06 1.486413613970247730e+26 5.355300271448141025e+00
2.470000000000000068e-06 1.483511199826137500e+26 5.355260555252439048e+00
2.479999999999999972e-06 1.480742262557836454e+26 5.355221273500573531e+00
2.489999999999999877e-06 1.477864805807925754e+26 5.355185417598702813e+00
2.500000000000000205e-06 1.475283102049952529e+26 5.355183114009324008e+00
2.510000000000000109e-06 1.472430437681283284e+26 5.355151925790929468e+00
2.520000000000000013e-06 1.469711265784964052e+26 5.355121953222954367e+00
2.529999999999999917e-06 1.466884034178102239e+26 5.355096079931931818e+00
2.540000000000000245e-06 1.463967544589694944e+26 5.354248586690518508e+00
2.550000000000000149e-06 1.461566259131842420e+26 5.354257229989501710e+00
2.560000000000000054e-06 1.458776372512496968e+26 5.354239463474513627e+00
2.569999999999999958e-06 1.455998929177122964e+26 5.354224320070496645e+00
2.579999999999999862e-06 1.453233753037541305e+26 5.354211632969207990e+00
2.590000000000000190e-06 1.450600964132012494e+26 5.354199799203390064e+00
2.600000000000000094e-06 1.447859551144833511e+26 5.354191367495236165e+00
2.609999999999999998e-06 1.445403975773649686e+26 5.354226127359926757e+00
2.619999999999999903e-06 1.442684953504160210e+26 5.354220831234992595e+00
2.630000000000000230e-06 1.440097174469556891e+26 5.354215344174530600e+00
2.640000000000000135e-06 1.437400149145847859e+26 5.354212188739959188e+00
2.650000000000000039e-06 1.434713895025374464e+26 5.354209752596124972e+00
