# z (um)	 Electron density (m^-3)
0.000000000000000000e+00 4.132272487152109760e+27 5.331183500542502784e+00
1.000000000000000021e-08 3.958730188195965807e+27 5.327698473585335215e+00
2.000000000000000042e-08 3.800411831440193712e+27 5.325019693879788463e+00
3.000000000000000394e-08 3.653136016360644542e+27 5.322974761170201852e+00
4.000000000000000084e-08 3.516070345552653136e+27 5.320795530975495069e+00
4.999999999999999774e-08 3.388989671240804387e+27 5.319153150529928098e+00
6.000000000000000787e-08 3.270924291962097700e+27 5.316715047771429781e+00
7.000000000000000477e-08 3.161443682340434445e+27 5.314804005593054548e+00
8.000000000000000167e-08 3.057939540717129675e+27 5.311848019967762013e+00
8.999999999999999857e-08 2.962191048347094100e+27 5.309471490282565043e+00
9.999999999999999547e-08 2.872161828792194380e+27 5.306941604348906161e+00
1.100000000000000056e-07 2.786980035813911720e+27 5.304913844144275359e+00
1.200000000000000157e-07 2.707270564919080966e+27 5.303383977363018253e+00
1.299999999999999994e-07 2.631069463731394094e+27 5.302443618150302740e+00
1.400000000000000095e-07 2.559464011771648015e+27 5.301178188830717453e+00
1.499999999999999932e-07 2.491651537207833790e+27 5.300246730963912078e+00
1.600000000000000033e-07 2.427781046566869413e+27 5.298785427144691695e+00
1.700000000000000135e-07 2.366977061363213859e+27 5.297672608739527611e+00
1.799999999999999971e-07 2.308684525862538299e+27 5.295930709558025917e+00
1.900000000000000073e-07 2.253032216808080423e+27 5.295404157238636778e+00
1.999999999999999909e-07 2.199818773150617237e+27 5.295093732985407975e+00
2.100000000000000011e-07 2.149449569101515559e+27 5.294035489925251525e+00
2.200000000000000112e-07 2.100917276536090243e+27 5.294193277268693265e+00
2.299999999999999949e-07 2.053461315609094751e+27 5.293050631682728380e+00
2.400000000000000315e-07 2.008906793518621294e+27 5.291985968942291230e+00
2.499999999999999887e-07 1.966711448970072598e+27 5.291150972362111737e+00
2.599999999999999988e-07 1.926696647456398710e+27 5.290442041836280751e+00
2.700000000000000090e-07 1.889407885137842648e+27 5.289997531818539933e+00
2.800000000000000191e-07 1.854982432610349202e+27 5.289793582927021731e+00
2.900000000000000292e-07 1.826411544931468702e+27 5.289461059755585559e+00
2.999999999999999864e-07 1.816488710144268429e+27 5.289296382920144701e+00
3.099999999999999966e-07 1.774687186702402140e+27 5.289497841202122963e+00
3.200000000000000067e-07 1.734586563385665140e+27 5.289183081641111173e+00
3.300000000000000168e-07 1.696075247843971273e+27 5.288150589479298169e+00
3.400000000000000270e-07 1.658799598890481825e+27 5.287545013687196871e+00
3.499999999999999842e-07 1.623436420914952255e+27 5.286796678685201201e+00
3.599999999999999943e-07 1.589143454466284625e+27 5.286410684876149624e+00
3.700000000000000044e-07 1.556107901798847601e+27 5.285297566859360252e+00
3.800000000000000146e-07 1.524472824104140554e+27 5.285158016069777531e+00
3.900000000000000247e-07 1.494056615167999152e+27 5.285155649301794156e+00
3.999999999999999819e-07 1.464693389509602123e+27 5.284453621130720258e+00
4.099999999999999920e-07 1.436542019815655427e+27 5.284580237775704958e+00
4.200000000000000022e-07 1.408972848044861890e+27 5.284405743938356714e+00
4.300000000000000123e-07 1.382724968619408511e+27 5.283970249624108106e+00
4.400000000000000224e-07 1.357094674661097013e+27 5.283897301829909132e+00
4.500000000000000326e-07 1.332576906886287817e+27 5.282976310519806873e+00
4.599999999999999898e-07 1.308691089931783948e+27 5.283066477514677395e+00
4.699999999999999999e-07 1.285524478435765873e+27 5.282375917523213005e+00
4.800000000000000630e-07 1.263225449191030668e+27 5.282711124335520481e+00
4.899999999999999672e-07 1.241574156772038219e+27 5.282184128219123309e+00
4.999999999999999774e-07 1.220619680916618755e+27 5.281901211218754000e+00
5.099999999999999875e-07 1.200337289325867292e+27 5.281598251237772601e+00
5.199999999999999976e-07 1.180701635046783786e+27 5.281223126404239743e+00
5.300000000000000078e-07 1.161675521822759153e+27 5.281058451907170159e+00
5.400000000000000179e-07 1.143149525939921695e+27 5.280219443208860497e+00
5.500000000000000281e-07 1.125003837510408998e+27 5.280422735472142470e+00
5.600000000000000382e-07 1.107583932116163976e+27 5.279601485138547545e+00
5.700000000000000483e-07 1.090757854900820311e+27 5.279626531943310219e+00
5.800000000000000585e-07 1.074089727048206265e+27 5.279218935445493699e+00
5.899999999999999627e-07 1.058152183454291420e+27 5.278627161722153183e+00
5.999999999999999728e-07 1.042425980224562104e+27 5.278294812769542155e+00
6.099999999999999830e-07 1.027141801771933685e+27 5.277954223676827539e+00
6.199999999999999931e-07 1.012518823379047631e+27 5.277551439733177752e+00
6.300000000000000033e-07 9.980646696749340198e+26 5.277405062456562490e+00
6.400000000000000134e-07 9.839293873678118245e+26 5.276516910112463599e+00
6.500000000000000235e-07 9.702462706394644071e+26 5.276486563968943777e+00
6.600000000000000337e-07 9.569243178939771230e+26 5.276463115242261637e+00
6.700000000000000438e-07 9.438838023026274959e+26 5.275633252540903761e+00
6.800000000000000539e-07 9.312507129474735416e+26 5.275765717546156530e+00
6.900000000000000641e-07 9.188723209135444277e+26 5.275149611923375836e+00
6.999999999999999683e-07 9.068111259309274407e+26 5.274451780586597138e+00
7.099999999999999785e-07 8.951152724806280974e+26 5.274756498117666226e+00
7.199999999999999886e-07 8.836471522424328162e+26 5.274155150351299781e+00
7.299999999999999987e-07 8.722529308704766485e+26 5.273956927672875494e+00
7.400000000000000089e-07 8.613410418758295341e+26 5.273447202120662425e+00
7.500000000000000190e-07 8.506888928795139105e+26 5.273002863682458852e+00
7.600000000000000291e-07 8.400931971339125707e+26 5.272917818423373149e+00
7.700000000000000393e-07 8.299414709258463303e+26 5.272558191946060013e+00
7.800000000000000494e-07 8.198357104665363838e+26 5.272423340988230400e+00
7.900000000000000595e-07 8.101500207395906499e+26 5.272144609460303499e+00
7.999999999999999638e-07 8.005091693758932173e+26 5.272110168347612813e+00
8.099999999999999739e-07 7.912018039183584357e+26 5.271158381665229875e+00
8.199999999999999841e-07 7.819790348932946367e+26 5.271179341531683882e+00
8.299999999999999942e-07 7.731391630253389558e+26 5.271051645202733837e+00
8.400000000000000043e-07 7.642579087973163257e+26 5.270369365030024511e+00
8.500000000000000145e-07 7.556260843805166514e+26 5.270519085363108758e+00
8.600000000000000246e-07 7.472993285806697589e+26 5.269747787575060904e+00
8.700000000000000347e-07 7.390327989603345209e+26 5.269965616948861786e+00
8.800000000000000449e-07 7.308875161464176305e+26 5.269284886477774599e+00
8.900000000000000550e-07 7.229124126738222554e+26 5.268820829192116584e+00
9.000000000000000652e-07 7.151056300194564470e+26 5.268250969688128116e+00
9.099999999999999694e-07 7.075076201473795138e+26 5.268552366143803845e+00
9.199999999999999795e-07 7.001798561167353273e+26 5.267836274906855465e+00
9.299999999999999897e-07 6.928365043190032853e+26 5.267451802950271933e+00
9.399999999999999998e-07 6.856435372341733676e+26 5.267003718939740509e+00
9.500000000000000100e-07 6.785919835917035693e+26 5.266724359906464592e+00
9.600000000000001260e-07 6.716808874695245478e+26 5.266289192074139258e+00
9.700000000000000302e-07 6.649059679566108894e+26 5.265926714909856088e+00
9.799999999999999345e-07 6.580588931900142530e+26 5.265030903362796444e+00
9.900000000000000505e-07 6.515440671344875623e+26 5.264864378474115369e+00
9.999999999999999547e-07 6.451536392780861121e+26 5.264539042273488789e+00
1.010000000000000071e-06 6.388374458750539478e+26 5.263496891065223338e+00
1.019999999999999975e-06 6.326867295181825485e+26 5.263285969552349286e+00
1.030000000000000091e-06 6.265042991777421428e+26 5.263249347315076321e+00
1.039999999999999995e-06 6.205361158181147154e+26 5.262327407969255688e+00
1.050000000000000111e-06 6.147203336896149169e+26 5.262148063378252694e+00
1.060000000000000016e-06 6.090107461526448708e+26 5.261974751471758971e+00
1.069999999999999920e-06 6.032210246466351444e+26 5.261337144933265542e+00
1.080000000000000036e-06 5.977173224779719917e+26 5.261084621742879719e+00
1.089999999999999940e-06 5.921292314136644943e+26 5.260452023799047971e+00
1.100000000000000056e-06 5.868186543622670502e+26 5.260430755063906894e+00
1.109999999999999960e-06 5.814236960306640722e+26 5.259844179953933718e+00
1.120000000000000076e-06 5.762544165003936639e+26 5.259085558308255415e+00
1.129999999999999981e-06 5.710869908601987979e+26 5.259176307556479024e+00
1.140000000000000097e-06 5.660944990517280665e+26 5.258459402561822316e+00
1.150000000000000001e-06 5.610979211787579288e+26 5.258698537934345829e+00
1.160000000000000117e-06 5.562836166790853126e+26 5.257874946823698714e+00
1.170000000000000021e-06 5.514123555660873027e+26 5.257472530846286851e+00
1.179999999999999925e-06 5.467901915210575628e+26 5.257408480821873731e+00
1.190000000000000041e-06 5.420768751824349288e+26 5.257005235102096385e+00
1.199999999999999946e-06 5.374428346237187910e+26 5.256454652256143945e+00
1.210000000000000062e-06 5.330441076466347050e+26 5.256612922350760719e+00
1.219999999999999966e-06 5.285573522870248664e+26 5.256116649409895203e+00
1.230000000000000082e-06 5.242639334863285000e+26 5.255590843246379151e+00
1.239999999999999986e-06 5.199180414162631986e+26 5.255129216686028393e+00
1.250000000000000102e-06 5.156398579774457841e+26 5.254835504779244104e+00
1.260000000000000007e-06 5.115857853049986054e+26 5.254930384632426232e+00
1.270000000000000123e-06 5.074416538710454968e+26 5.254501171353648026e+00
1.280000000000000027e-06 5.033588829910643762e+26 5.254257055143726873e+00
1.289999999999999931e-06 4.993404158672373532e+26 5.253878498030865707e+00
1.300000000000000047e-06 4.954985013359639041e+26 5.253299792750043551e+00
1.309999999999999951e-06 4.915990554205115521e+26 5.253104121176860097e+00
1.320000000000000067e-06 4.877611445334698553e+26 5.252754282462250401e+00
1.329999999999999972e-06 4.839793449776759037e+26 5.252437520328392395e+00
1.340000000000000088e-06 4.803648859513948011e+26 5.251919422050164599e+00
1.349999999999999992e-06 4.767288054618796585e+26 5.252370313163569726e+00
1.360000000000000108e-06 4.731110221261770236e+26 5.252097288132343778e+00
1.370000000000000012e-06 4.695446030249789958e+26 5.251990476587145906e+00
1.380000000000000128e-06 4.660317406866109744e+26 5.251745647584159293e+00
1.390000000000000032e-06 4.626421378787004638e+26 5.250560667324877251e+00
1.399999999999999937e-06 4.592288892560169780e+26 5.250342427897531472e+00
1.410000000000000053e-06 4.558637550903761049e+26 5.250137068561815390e+00
1.419999999999999957e-06 4.525467075594204680e+26 5.249944825639611068e+00
1.430000000000000073e-06 4.492758789572514635e+26 5.249764974695701802e+00
1.439999999999999977e-06 4.460508301497147402e+26 5.249597537209519160e+00
1.450000000000000093e-06 4.428703074902860634e+26 5.249414190287392756e+00
1.459999999999999997e-06 4.397342036053989658e+26 5.249271446078119574e+00
1.470000000000000113e-06 4.367426398970084884e+26 5.248925764582223152e+00
1.480000000000000018e-06 4.336596465115475022e+26 5.248068994526603248e+00
1.490000000000000134e-06 4.306514589872373557e+26 5.247806480816623598e+00
1.500000000000000038e-06 4.276831609810128053e+26 5.247710129851229865e+00
1.509999999999999942e-06 4.247612798273943159e+26 5.247598800700703947e+00
1.520000000000000058e-06 4.218412013787155078e+26 5.246787626040354091e+00
1.529999999999999963e-06 4.189901218526532030e+26 5.246724401186865450e+00
1.540000000000000079e-06 4.161771203258209134e+26 5.246672238279540323e+00
1.549999999999999983e-06 4.134018046339657251e+26 5.246475721541417059e+00
1.560000000000000099e-06 4.106298945253587400e+26 5.245700619799388953e+00
1.570000000000000003e-06 4.079256227884610893e+26 5.245680089302121374e+00
1.580000000000000119e-06 4.052557047925220509e+26 5.245669577942285500e+00
1.590000000000000023e-06 4.026203745946988132e+26 5.245669425209817049e+00
1.599999999999999928e-06 3.999892447170661337e+26 5.244763439409749317e+00
1.610000000000000044e-06 3.974204555174303678e+26 5.244782983605865923e+00
1.619999999999999948e-06 3.947918243018534650e+26 5.245042716410844186e+00
1.630000000000000064e-06 3.922600002892964702e+26 5.244187364647626026e+00
1.639999999999999968e-06 3.897858572318415071e+26 5.244213978438556190e+00
1.650000000000000084e-06 3.873434522443366556e+26 5.244270765830563619e+00
1.659999999999999988e-06 3.849029552302095541e+26 5.243460138080412669e+00
1.670000000000000104e-06 3.825198774551826225e+26 5.243534162066628923e+00
1.680000000000000009e-06 3.801655955963348307e+26 5.243599010835989560e+00
1.690000000000000125e-06 3.778135835244058504e+26 5.242796351442527758e+00
1.700000000000000029e-06 3.755162027788626424e+26 5.242914593227277820e+00
1.709999999999999933e-06 3.731345119331618697e+26 5.242339642418353485e+00
1.720000000000000049e-06 3.708925634816710322e+26 5.242439187785627119e+00
1.729999999999999953e-06 3.686769746116952287e+26 5.242581903636050811e+00
1.740000000000000069e-06 3.664629107050080198e+26 5.241819590390495165e+00
1.749999999999999974e-06 3.642995569590011392e+26 5.241945125428632224e+00
1.760000000000000090e-06 3.620539263166020873e+26 5.241408812268324446e+00
1.769999999999999994e-06 3.599416331380991028e+26 5.241582559576923650e+00
1.780000000000000110e-06 3.578286436209976604e+26 5.241006879701941124e+00
1.790000000000000014e-06 3.557655693118048693e+26 5.241026442645334349e+00
1.800000000000000130e-06 3.537008384599038023e+26 5.240466085022987386e+00
1.810000000000000035e-06 3.516053145535924472e+26 5.240704786943482851e+00
1.819999999999999939e-06 3.495864491468919502e+26 5.240164520957844019e+00
1.830000000000000055e-06 3.476176842108570470e+26 5.240208908408856558e+00
1.839999999999999959e-06 3.456444505441121656e+26 5.239694822815839537e+00
1.850000000000000075e-06 3.436472727479221938e+26 5.239950742980239440e+00
1.859999999999999979e-06 3.417185537020403629e+26 5.239432254518396448e+00
1.870000000000000095e-06 3.398360797188454127e+26 5.239522327135371249e+00
1.880000000000000000e-06 3.378712802229293821e+26 5.239215324446061750e+00
1.890000000000000116e-06 3.360303408390960194e+26 5.239318451780834884e+00
1.900000000000000020e-06 3.341848193924950684e+26 5.238825768398984728e+00
1.909999999999999924e-06 3.323591055018298559e+26 5.238193590166219771e+00
1.920000000000000252e-06 3.305012623192470686e+26 5.238660372416280353e+00
1.930000000000000156e-06 3.287148526476607346e+26 5.238040958413369808e+00
1.940000000000000060e-06 3.269722477133815832e+26 5.238157941957744868e+00
1.949999999999999965e-06 3.251486592710702552e+26 5.237918911401118649e+00
1.959999999999999869e-06 3.234428917360180481e+26 5.238041974853996585e+00
1.970000000000000197e-06 3.217309463432375502e+26 5.237609639329213529e+00
1.980000000000000101e-06 3.199642846114800446e+26 5.237208345783837871e+00
1.990000000000000005e-06 3.183119258376082876e+26 5.237528750141532186e+00
1.999999999999999909e-06 3.165825105873449453e+26 5.237142367516172570e+00
2.010000000000000237e-06 3.149418074003717684e+26 5.236572635819543464e+00
2.020000000000000142e-06 3.133416492709711413e+26 5.236891905289152938e+00
2.030000000000000046e-06 3.116632728057449185e+26 5.236537225025285736e+00
2.039999999999999950e-06 3.100973401789784142e+26 5.236711147709565140e+00
2.049999999999999854e-06 3.085228301930052202e+26 5.236321884714024932e+00
2.060000000000000182e-06 3.068956896248094857e+26 5.235966990689481015e+00
2.070000000000000086e-06 3.053772156976192575e+26 5.236175632699833216e+00
2.079999999999999991e-06 3.037804856655197511e+26 5.236005016234297038e+00
2.089999999999999895e-06 3.022711054553385761e+26 5.235463487036195573e+00
2.100000000000000223e-06 3.007070655463968230e+26 5.235146539251732456e+00
2.110000000000000127e-06 2.992486361365797943e+26 5.235515035655971872e+00
2.120000000000000031e-06 2.977829410294698832e+26 5.235008467204020910e+00
2.129999999999999935e-06 2.962640187051110280e+26 5.234705784309592325e+00
2.139999999999999840e-06 2.948489559142828748e+26 5.235089494716843816e+00
2.150000000000000167e-06 2.933589521080258274e+26 5.234797266683538730e+00
2.160000000000000072e-06 2.919500563954681385e+26 5.234309582981789610e+00
2.169999999999999976e-06 2.904947448128332704e+26 5.234167332881876078e+00
2.179999999999999880e-06 2.891347219335383559e+26 5.234430513412375419e+00
2.190000000000000208e-06 2.877000639712202570e+26 5.234158141367903916e+00
2.200000000000000112e-06 2.863456333858554132e+26 5.233670274119641697e+00
2.210000000000000016e-06 2.849587629160755762e+26 5.234302475674083688e+00
2.219999999999999921e-06 2.836288280214934916e+26 5.233847107062447712e+00
2.230000000000000248e-06 2.822483266995408992e+26 5.233568462701223112e+00
2.240000000000000153e-06 2.809439737827325938e+26 5.233121839093265670e+00
2.250000000000000057e-06 2.796510469689318072e+26 5.232833677497191083e+00
2.259999999999999961e-06 2.783285000833643316e+26 5.233327681692243161e+00
2.269999999999999866e-06 2.770610395691586389e+26 5.232877483971384969e+00
2.280000000000000193e-06 2.757424962068762243e+26 5.232636100778959687e+00
2.290000000000000098e-06 2.744979227667894947e+26 5.232214081209562551e+00
2.300000000000000002e-06 2.732232117030665932e+26 5.232864193732930325e+00
2.309999999999999906e-06 2.720023823270421291e+26 5.232442177054861254e+00
2.320000000000000234e-06 2.707304494472143063e+26 5.232224862030725454e+00
2.330000000000000138e-06 2.694708435392666056e+26 5.232002307476953717e+00
2.340000000000000042e-06 2.682841119933402205e+26 5.231573848370381086e+00
2.349999999999999947e-06 2.670655611204184522e+26 5.232270319750367271e+00
2.359999999999999851e-06 2.658995037020189743e+26 5.231869308075294711e+00
2.370000000000000179e-06 2.646837788063132385e+26 5.231670945740131806e+00
2.380000000000000083e-06 2.635394850510846491e+26 5.231259307367406741e+00
2.389999999999999987e-06 2.623452969171510387e+26 5.231058512643332215e+00
2.399999999999999891e-06 2.612206151468024993e+26 5.230683943673428260e+00
2.410000000000000219e-06 2.600466899905670892e+26 5.230491569836605237e+00
2.420000000000000123e-06 2.589604728262524608e+26 5.231018103475163272e+00
2.430000000000000028e-06 2.578070228830680918e+26 5.230825130756807440e+00
2.439999999999999932e-06 2.566634057629896170e+26 5.230642760252444567e+00
2.450000000000000260e-06 2.555875635437886184e+26 5.230277853249516440e+00
2.460000000000000164e-06 2.544626023544902920e+26 5.230115578564895173e+00
2.470000000000000068e-06 2.534121881535185151e+26 5.229741212334977796e+00
2.479999999999999972e-06 2.523066970399205470e+26 5.229572908215456728e+00
2.489999999999999877e-06 2.512860659380419154e+26 5.229971325359432655e+00
2.500000000000000205e-06 2.501986908675034619e+26 5.229822541953146775e+00
2.510000000000000109e-06 2.491200769807597349e+26 5.229821698715038103e+00
2.520000000000000013e-06 2.481078424738297060e+26 5.229466113747839984e+00
2.529999999999999917e-06 2.470475980817624196e+26 5.229327642795114528e+00
2.540000000000000245e-06 2.460521772793491025e+26 5.228997978443121752e+00
2.550000000000000149e-06 2.450093655923705929e+26 5.228852909284433359e+00
2.560000000000000054e-06 2.439754653668201784e+26 5.228724206048813272e+00
2.569999999999999958e-06 2.430053781507328637e+26 5.228404942091237295e+00
2.579999999999999862e-06 2.419891401264375787e+26 5.228250177939802512e+00
2.590000000000000190e-06 2.410354263865780553e+26 5.227938528602947166e+00
2.600000000000000094e-06 2.400529985267304310e+26 5.228570623119301430e+00
2.609999999999999998e-06 2.390612701702451768e+26 5.228443453858343304e+00
2.619999999999999903e-06 2.381314621734173246e+26 5.228142825714761521e+00
2.630000000000000230e-06 2.371557867058839062e+26 5.228021909160499803e+00
2.640000000000000135e-06 2.361884694929143545e+26 5.227886001301095042e+00
2.650000000000000039e-06 2.352807864563243399e+26 5.227768991586445146e+00
