# z (um)	 Electron density (m^-3)
0.000000000000000000e+00 5.119041299870267664e+27 5.321964663169442389e+00
1.000000000000000021e-02 4.868780632484213303e+27 5.318200461955094660e+00
2.000000000000000042e-02 4.642126778658824895e+27 5.315323825714339812e+00
3.000000000000000236e-02 4.433461780426602176e+27 5.312648174139308566e+00
4.000000000000000083e-02 4.242080783786270762e+27 5.309908838509434403e+00
4.999999999999999584e-02 4.064916746218716080e+27 5.307276967304886739e+00
6.000000000000000472e-02 3.899786408672248507e+27 5.305388388272539224e+00
7.000000000000000666e-02 3.746894265815648350e+27 5.303691098827365558e+00
8.000000000000000167e-02 3.603133798333215514e+27 5.301260880165246547e+00
8.999999999999999667e-02 3.468930684226480192e+27 5.299646596057789871e+00
9.999999999999999167e-02 3.343764299704243304e+27 5.297045683163525531e+00
1.099999999999999867e-01 3.226780609185626415e+27 5.295178199035182054e+00
1.200000000000000094e-01 3.118315714389991514e+27 5.293681468139059376e+00
1.300000000000000044e-01 3.016249212707820725e+27 5.291967260970602105e+00
1.400000000000000133e-01 2.920724514184251468e+27 5.291627305596750652e+00
1.499999999999999944e-01 2.831032540705771530e+27 5.290985066389339408e+00
1.600000000000000033e-01 2.746492061229291022e+27 5.290056430631166151e+00
1.700000000000000122e-01 2.667265621470642393e+27 5.289577371173048270e+00
1.799999999999999933e-01 2.591954290411871611e+27 5.288028719169480141e+00
1.900000000000000022e-01 2.520781157174222021e+27 5.287452273965031146e+00
1.999999999999999833e-01 2.454632479153492609e+27 5.286284096133223365e+00
2.099999999999999922e-01 2.391120780156141040e+27 5.285538131181187538e+00
2.199999999999999734e-01 2.331719255573200799e+27 5.285052829510381578e+00
2.299999999999999822e-01 2.274698502908234970e+27 5.284816283725984221e+00
2.400000000000000189e-01 2.220014905053963081e+27 5.284161430297802831e+00
2.500000000000000000e-01 2.168317601405049140e+27 5.283859007528161733e+00
2.600000000000000089e-01 2.118741281548129421e+27 5.283029939586592505e+00
2.700000000000000178e-01 2.071429481247634461e+27 5.282272600961897879e+00
2.800000000000000266e-01 2.025909702542277576e+27 5.282057249032643398e+00
2.900000000000000355e-01 1.982562897202822079e+27 5.281666252856732413e+00
2.999999999999999889e-01 1.940306073085588154e+27 5.281571767620342861e+00
3.099999999999999978e-01 1.900520254096065073e+27 5.281388550641641366e+00
3.200000000000000067e-01 1.862263220801844914e+27 5.281416140095804401e+00
3.300000000000000155e-01 1.824740450367792829e+27 5.280887554696158226e+00
3.400000000000000244e-01 1.789169309025608901e+27 5.281243257137854030e+00
3.499999999999999778e-01 1.754898909813033180e+27 5.280170163848218579e+00
3.599999999999999867e-01 1.722725029057443270e+27 5.279895480748248993e+00
3.699999999999999956e-01 1.692360604563854353e+27 5.279084675637752078e+00
3.800000000000000044e-01 1.664616899769112941e+27 5.278318720950449183e+00
3.900000000000000133e-01 1.640388159812511288e+27 5.277901114311775999e+00
3.999999999999999667e-01 1.625086205947350519e+27 5.277278520004605511e+00
4.099999999999999756e-01 1.600510720768227509e+27 5.276983377804130626e+00
4.199999999999999845e-01 1.566965887705776823e+27 5.276922915125740410e+00
4.299999999999999378e-01 1.535100496706577544e+27 5.276717926834893824e+00
4.399999999999999467e-01 1.504116953585868153e+27 5.276858681279428254e+00
4.499999999999999556e-01 1.473969137954878674e+27 5.277343718888480417e+00
4.599999999999999645e-01 1.445191051491406685e+27 5.276840924696449164e+00
4.699999999999999734e-01 1.417474827283584338e+27 5.276471448507904505e+00
4.800000000000000377e-01 1.390662923177769408e+27 5.275571176876817425e+00
4.899999999999999911e-01 1.364593715251449260e+27 5.275449367382784693e+00
5.000000000000000000e-01 1.339662778580653665e+27 5.274623287448503284e+00
5.100000000000000089e-01 1.315387751774231792e+27 5.274760170868735720e+00
5.200000000000000178e-01 1.291842528239993760e+27 5.274317139927326537e+00
5.300000000000000266e-01 1.269095754417787207e+27 5.273833090318198025e+00
5.400000000000000355e-01 1.247016351113032597e+27 5.272745751145230031e+00
5.500000000000000444e-01 1.225749585029086286e+27 5.272437452303348593e+00
5.600000000000000533e-01 1.205081098479369579e+27 5.271463670113945454e+00
5.699999999999999512e-01 1.185161995366399147e+27 5.271185279177591276e+00
5.800000000000000711e-01 1.165780546790291218e+27 5.270371574863378150e+00
5.899999999999998579e-01 1.147002368477659751e+27 5.269517903699413530e+00
5.999999999999999778e-01 1.128531900212227242e+27 5.269091229991119896e+00
6.099999999999998757e-01 1.110882278859080832e+27 5.268384232792315380e+00
6.199999999999999956e-01 1.093498709244702042e+27 5.268045042956027935e+00
6.299999999999998934e-01 1.076884364266486986e+27 5.267476816061096301e+00
6.400000000000000133e-01 1.060503101647982368e+27 5.267212622521203258e+00
6.499999999999999112e-01 1.044514090690604050e+27 5.266209481661464409e+00
6.600000000000000311e-01 1.029067089553807348e+27 5.266074683399928347e+00
6.699999999999999289e-01 1.013966267209965679e+27 5.265198376350328502e+00
6.800000000000000488e-01 9.995936737426209294e+26 5.264945398562070444e+00
6.899999999999999467e-01 9.850771458784846812e+26 5.264430071974406822e+00
6.999999999999999556e-01 9.711842357040577524e+26 5.263789979640676187e+00
7.099999999999998535e-01 9.576603612625675864e+26 5.263149011968178748e+00
7.199999999999999734e-01 9.444956085717974112e+26 5.262621215809729414e+00
7.299999999999998712e-01 9.316758466072141025e+26 5.261946250634702338e+00
7.399999999999999911e-01 9.189679605389876137e+26 5.261727690529281354e+00
7.500000000000000000e-01 9.068015154519157584e+26 5.261155504613154399e+00
7.600000000000000089e-01 8.948762330441237393e+26 5.260095552929915819e+00
7.700000000000000178e-01 8.831064843542959369e+26 5.259883048914375969e+00
7.800000000000000266e-01 8.716289625467530479e+26 5.259703500522163289e+00
7.900000000000000355e-01 8.605677439960163001e+26 5.258746900772767852e+00
7.999999999999999334e-01 8.496410479428143111e+26 5.258659395986069462e+00
8.099999999999999423e-01 8.391113555604595969e+26 5.257645051010981341e+00
8.199999999999999512e-01 8.286379182695384983e+26 5.256909371617675575e+00
8.299999999999999600e-01 8.184716730428511116e+26 5.256816542327834796e+00
8.399999999999999689e-01 8.086703051758320645e+26 5.255928366357711212e+00
8.499999999999999778e-01 7.989674661705153620e+26 5.256052946338545695e+00
8.599999999999998757e-01 7.894266447532937353e+26 5.255496526722328809e+00
8.699999999999999956e-01 7.801038445318297243e+26 5.254826710711879123e+00
8.799999999999998934e-01 7.711687482714444625e+26 5.254094288783803357e+00
8.900000000000000133e-01 7.622545589694875274e+26 5.253498003743979794e+00
8.999999999999999112e-01 7.535899610182655031e+26 5.253811478491752673e+00
9.099999999999999201e-01 7.450591404832082704e+26 5.253229473316606501e+00
9.199999999999999289e-01 7.367138148468718668e+26 5.252737919609032247e+00
9.299999999999999378e-01 7.285459239599777039e+26 5.252279521262099848e+00
9.399999999999999467e-01 7.205483688262180913e+26 5.252007869023367803e+00
9.499999999999999556e-01 7.127196488873457248e+26 5.251557141865954570e+00
9.600000000000000755e-01 7.050538635126964963e+26 5.251193279150784932e+00
9.699999999999998623e-01 6.975455186748714453e+26 5.250859347357619278e+00
9.799999999999999822e-01 6.901883416995942632e+26 5.250513053859598323e+00
9.900000000000001021e-01 6.829312330107709066e+26 5.249502185381502706e+00
1.000000000000000000e+00 6.758675163643769943e+26 5.249198564505141995e+00
1.009999999999999787e+00 6.689448849102614055e+26 5.248977823814358068e+00
1.020000000000000018e+00 6.621577185245946270e+26 5.248728901556764193e+00
1.030000000000000027e+00 6.555033989039969271e+26 5.248561499153138854e+00
1.040000000000000036e+00 6.487781205847881245e+26 5.247743003392970174e+00
1.049999999999999822e+00 6.423798845189574093e+26 5.247625934106852519e+00
1.060000000000000053e+00 6.361017741383794787e+26 5.247479395003878722e+00
1.069999999999999840e+00 6.298960766645442890e+26 5.246689834772899630e+00
1.080000000000000071e+00 6.238545194144135267e+26 5.246434047787897903e+00
1.089999999999999636e+00 6.177339090972876027e+26 5.245934303096580820e+00
1.100000000000000089e+00 6.119142052900116144e+26 5.245738211617870128e+00
1.109999999999999876e+00 6.061561188234785209e+26 5.244973473542192011e+00
1.120000000000000107e+00 6.004136073199072915e+26 5.245289921702370961e+00
1.129999999999999671e+00 5.948640179055313323e+26 5.244411198837374499e+00
1.139999999999999902e+00 5.893193320853472153e+26 5.244546877093640092e+00
1.149999999999999911e+00 5.839647515242024248e+26 5.243933917769418862e+00
1.160000000000000142e+00 5.787052372997757913e+26 5.243131437235836856e+00
1.169999999999999929e+00 5.734444699732969651e+26 5.243486660666198951e+00
1.179999999999999716e+00 5.683676052051671777e+26 5.242724145174170403e+00
1.189999999999999947e+00 5.632474583202560732e+26 5.242276576383217090e+00
1.199999999999999956e+00 5.582522057195988477e+26 5.242704000407228726e+00
1.209999999999999964e+00 5.534324828336492625e+26 5.241998120414202766e+00
1.219999999999999751e+00 5.485656982459521295e+26 5.241555212177194001e+00
1.229999999999999982e+00 5.439063411378862642e+26 5.240885664288225776e+00
1.239999999999999991e+00 5.391976273256313926e+26 5.240700666669652286e+00
1.250000000000000000e+00 5.347313078694445136e+26 5.240787933726133829e+00
1.259999999999999787e+00 5.301741881382748419e+26 5.240427598865215586e+00
1.270000000000000018e+00 5.256912427580426266e+26 5.240084145517088565e+00
1.280000000000000027e+00 5.214015644074391727e+26 5.239498864878795459e+00
1.290000000000000036e+00 5.170594011502075405e+26 5.239187271305772775e+00
1.299999999999999822e+00 5.127856523834107685e+26 5.239037410957574359e+00
1.310000000000000053e+00 5.085794097860862501e+26 5.238756982779957383e+00
1.320000000000000062e+00 5.045571008321047317e+26 5.238233434897938245e+00
1.330000000000000071e+00 5.005165387529388241e+26 5.238718790051557939e+00
1.339999999999999858e+00 4.965019830351495469e+26 5.238482443266403443e+00
1.350000000000000089e+00 4.925494894654613315e+26 5.238260522402145014e+00
1.360000000000000098e+00 4.887708466404933301e+26 5.237794410997343775e+00
1.370000000000000107e+00 4.849362787944086180e+26 5.237599765219783876e+00
1.379999999999999893e+00 4.811599396255634652e+26 5.237418805001741617e+00
1.390000000000000124e+00 4.774396783619434779e+26 5.237250869052644475e+00
1.399999999999999911e+00 4.737747521801888878e+26 5.237095918271185369e+00
1.410000000000000142e+00 4.701644420808788074e+26 5.236953955296622887e+00
1.419999999999999707e+00 4.667155079829128161e+26 5.236566704202616052e+00
1.429999999999999938e+00 4.631748926956975710e+26 5.235711943895130283e+00
1.439999999999999947e+00 4.597197360754744073e+26 5.235607027874870312e+00
1.450000000000000178e+00 4.563138652079906436e+26 5.235514009806276015e+00
1.459999999999999742e+00 4.529571435839048068e+26 5.235433203767459354e+00
1.469999999999999973e+00 4.496476642810672331e+26 5.235363968494378462e+00
1.479999999999999982e+00 4.463842572507325995e+26 5.235264532209975563e+00
1.490000000000000213e+00 4.431676912183102728e+26 5.235219111426288485e+00
1.500000000000000000e+00 4.399948962840205378e+26 5.235197222432770303e+00
1.509999999999999787e+00 4.368358221570643821e+26 5.234276337037420568e+00
1.520000000000000018e+00 4.337511784838917697e+26 5.234263808885332381e+00
1.530000000000000027e+00 4.307082423338186521e+26 5.234261738525339602e+00
1.540000000000000036e+00 4.277064746972005318e+26 5.234231039613285397e+00
1.549999999999999822e+00 4.247518936211706332e+26 5.234262494721057202e+00
1.560000000000000053e+00 4.218978031782462242e+26 5.233298053612527312e+00
1.570000000000000062e+00 4.189191411729769978e+26 5.233432700428531703e+00
1.580000000000000071e+00 4.160746949001756682e+26 5.233443463197594347e+00
1.589999999999999858e+00 4.132688249624723958e+26 5.233502245782717388e+00
1.599999999999999867e+00 4.104686819775987787e+26 5.232844021396958922e+00
1.610000000000000098e+00 4.077367888295300082e+26 5.232759894924667421e+00
1.619999999999999885e+00 4.050391102750000620e+26 5.232809586299791427e+00
1.629999999999999893e+00 4.023469094372442361e+26 5.232165890983535128e+00
1.639999999999999902e+00 3.997185932686131170e+26 5.232281315910549679e+00
1.650000000000000133e+00 3.971246315867992707e+26 5.232197553269965162e+00
1.659999999999999920e+00 3.945341406206269330e+26 5.231579378639853672e+00
1.669999999999999929e+00 3.920051633342430159e+26 5.231720256503516353e+00
1.679999999999999938e+00 3.895092849317079471e+26 5.231696405158439589e+00
1.690000000000000169e+00 3.870150078963596918e+26 5.231069735425417200e+00
1.699999999999999956e+00 3.845807972551563190e+26 5.231074373022942758e+00
1.709999999999999742e+00 3.821765907557758642e+26 5.231236102191168413e+00
1.719999999999999751e+00 3.796849278014634060e+26 5.230886896800644337e+00
1.729999999999999982e+00 3.773402995427918410e+26 5.230915035638246557e+00
1.739999999999999991e+00 3.749964681529886018e+26 5.230360274854773728e+00
1.749999999999999778e+00 3.727074646723542330e+26 5.230522408280807056e+00
1.759999999999999787e+00 3.704202706612620362e+26 5.229834092973041137e+00
1.770000000000000018e+00 3.681865197724864117e+26 5.230041419942215164e+00
1.780000000000000027e+00 3.658679985888792633e+26 5.229590144054351519e+00
1.789999999999999813e+00 3.636875797180905316e+26 5.229811798884031582e+00
1.799999999999999822e+00 3.615333682342993945e+26 5.229852336762201404e+00
1.810000000000000053e+00 3.593773385630558989e+26 5.229360617420328872e+00
1.819999999999999840e+00 3.572738102797099016e+26 5.229442971264017359e+00
1.830000000000000071e+00 3.550846224313462283e+26 5.229187984854705817e+00
1.839999999999999858e+00 3.530301044690871579e+26 5.229283475692507288e+00
1.850000000000000089e+00 3.509727459310452914e+26 5.228805614795656531e+00
1.859999999999999876e+00 3.489385676499833068e+26 5.228160948561448862e+00
1.869999999999999885e+00 3.468730277049188156e+26 5.228685001688005762e+00
1.879999999999999893e+00 3.448851106463372035e+26 5.228053348520178112e+00
1.890000000000000346e+00 3.429452029788975989e+26 5.228341166244775629e+00
1.899999999999999911e+00 3.410021392689290032e+26 5.227745267068544699e+00
1.909999999999999920e+00 3.390266899209088388e+26 5.228270408133478320e+00
1.920000000000000151e+00 3.371270967049271705e+26 5.227686000373931385e+00
1.930000000000000160e+00 3.352732492010983149e+26 5.227815681445068030e+00
1.939999999999999725e+00 3.334147883531106688e+26 5.227404185172942697e+00
1.949999999999999956e+00 3.315070587721965553e+26 5.227051136608030113e+00
1.959999999999999964e+00 3.297138007310378964e+26 5.227391999551669777e+00
1.970000000000000195e+00 3.279168668969335962e+26 5.226823884306814882e+00
1.980000000000000204e+00 3.260874864533541671e+26 5.227241170950332361e+00
1.989999999999999991e+00 3.243284577425270251e+26 5.226844763407119565e+00
2.000000000000000000e+00 3.225886735754090226e+26 5.226287276914625579e+00
2.010000000000000231e+00 3.208173455604466346e+26 5.226726113230771631e+00
2.019999999999999574e+00 3.191136266944900175e+26 5.226340871338332583e+00
2.030000000000000249e+00 3.174291903972721884e+26 5.225804447378016526e+00
2.040000000000000036e+00 3.157122397492421947e+26 5.226254064377768849e+00
2.049999999999999822e+00 3.140617310320748308e+26 5.225900759922680550e+00
2.060000000000000053e+00 3.123574428691871918e+26 5.225606500326763992e+00
2.069999999999999840e+00 3.107653910378552925e+26 5.225843158932513610e+00
2.080000000000000071e+00 3.091656465858806970e+26 5.225478667344872541e+00
2.089999999999999858e+00 3.075125541926804210e+26 5.225224185376115216e+00
2.099999999999999645e+00 3.059686877861464294e+26 5.225463354950710126e+00
2.110000000000000320e+00 3.044183802573865961e+26 5.225126110078947228e+00
2.120000000000000107e+00 3.028136040336339624e+26 5.224873067137893123e+00
2.129999999999999893e+00 3.013178908196145923e+26 5.225126216916496702e+00
2.139999999999999680e+00 2.997439810063552604e+26 5.225043737586337222e+00
2.149999999999999911e+00 2.982561880914822753e+26 5.224575046950973523e+00
2.160000000000000142e+00 2.967144877842005014e+26 5.224328096299739599e+00
2.169999999999999929e+00 2.952782723539657176e+26 5.224610992988858449e+00
2.179999999999999272e+00 2.938333836422059036e+26 5.224308425821079460e+00
2.190000000000000391e+00 2.923366405687343024e+26 5.224082358016234551e+00
2.200000000000000178e+00 2.909426510780418396e+26 5.224371380554145183e+00
2.209999999999999964e+00 2.894734760884478836e+26 5.224326641181890274e+00
2.219999999999999751e+00 2.880860808968435190e+26 5.223868559880198603e+00
2.229999999999999982e+00 2.866457874673113080e+26 5.223669902115052999e+00
2.240000000000000213e+00 2.852849974231452885e+26 5.223233269176512650e+00
2.250000000000000000e+00 2.838936566387284000e+26 5.223772180569398849e+00
2.259999999999999343e+00 2.825578260792103861e+26 5.223506595278419873e+00
2.270000000000000018e+00 2.811715487130939194e+26 5.223321155666932114e+00
2.279999999999999805e+00 2.798623666481470232e+26 5.222890029881792628e+00
2.290000000000000036e+00 2.785224137334472623e+26 5.223455665421694150e+00
2.299999999999999822e+00 2.772378859734042412e+26 5.223044773541313468e+00
2.309999999999999609e+00 2.759011838390685512e+26 5.223035034500915330e+00
2.320000000000000284e+00 2.746411112519568075e+26 5.222619803318242937e+00
2.330000000000000071e+00 2.733356477158085822e+26 5.222455355815433187e+00
2.339999999999999858e+00 2.720986217578495592e+26 5.222061043682149517e+00
2.350000000000000089e+00 2.708311244911941644e+26 5.222646387304232363e+00
2.359999999999999432e+00 2.696160606070116574e+26 5.222410161491304770e+00
2.370000000000000107e+00 2.683515649348855761e+26 5.222257073880144596e+00
2.379999999999999893e+00 2.671594725842631925e+26 5.221879038765359304e+00
2.389999999999999680e+00 2.659171483682785383e+26 5.221733102406663996e+00
2.399999999999999911e+00 2.647470741968405630e+26 5.221350377386103858e+00
2.410000000000000142e+00 2.635465629496554312e+26 5.221954843706540395e+00
2.419999999999999929e+00 2.623968529810297312e+26 5.221593834504663967e+00
2.430000000000000160e+00 2.611975160502935909e+26 5.221620575762928596e+00
2.439999999999999503e+00 2.600096411386471343e+26 5.221479101690947644e+00
2.450000000000000178e+00 2.588911712191844007e+26 5.221125274407996564e+00
2.459999999999999964e+00 2.577236619458839737e+26 5.221003157973569841e+00
2.469999999999999751e+00 2.566254529920842176e+26 5.220655123029647626e+00
2.479999999999999982e+00 2.554781664327137306e+26 5.220539315979027428e+00
2.489999999999999769e+00 2.544181977515393085e+26 5.220932041609290586e+00
2.500000000000000000e+00 2.532908394731902226e+26 5.220816435612202433e+00
2.510000000000000231e+00 2.522306467056503754e+26 5.220487757487568992e+00
2.519999999999999574e+00 2.511214749431151396e+26 5.220540232686344595e+00
2.529999999999999805e+00 2.500226328070555295e+26 5.220439505472003638e+00
2.540000000000000036e+00 2.489906685588335207e+26 5.220100756775957862e+00
2.549999999999999822e+00 2.479102944136211993e+26 5.220006033022727365e+00
2.560000000000000053e+00 2.468957016460563019e+26 5.219687072320150278e+00
2.569999999999999840e+00 2.458329649360832390e+26 5.219599231544250095e+00
2.580000000000000071e+00 2.447797730734776720e+26 5.219505222147690304e+00
2.590000000000000302e+00 2.437907310607590305e+26 5.219204487899402167e+00
2.599999999999999645e+00 2.427548204043081205e+26 5.219116004004271225e+00
2.609999999999999876e+00 2.417453837061319273e+26 5.219764839574493109e+00
2.620000000000000107e+00 2.407811055404978282e+26 5.219474890283792412e+00
2.630000000000000338e+00 2.397703762639445747e+26 5.219394649547106191e+00
2.640000000000000124e+00 2.388220893489807571e+26 5.219112414934272692e+00
2.649999999999999467e+00 2.378276404639754956e+26 5.219037704744612149e+00
